time;position;velocity
0;1;0
0.001;1.0;-0.19739208802178718
0.002;0.9998026079119784;-0.3947841760435744
0.003;0.9994078237359348;-0.592137300428948
0.004;0.9988156864355058;-0.7894124975414943
0.005;0.9980262739379641;-0.9865708114359134
0.006;0.9970397031265281;-1.1835733015491323
0.007;0.9958561298249791;-1.3803804143827523
0.008;0.9944757494105962;-1.5769509638047912
0.009000000000000001;0.9928987984467914;-1.7732411343234658
0.010000000000000002;0.991125557312468;-1.9692038020798597
0.011000000000000003;0.989156353510388;-2.164788286526378
0.012000000000000004;0.9869915652238617;-2.359940501762482
0.013000000000000005;0.9846316247220991;-2.5546033973874445
0.014000000000000005;0.9820770213247116;-2.7487175565837165
0.015000000000000006;0.979328303768128;-2.942221834149457
0.016000000000000007;0.9763860819339785;-3.1350539497637633
0.017000000000000008;0.9732510279842148;-3.3271509874623577
0.01800000000000001;0.9699238769967525;-3.5184497827058365
0.01900000000000001;0.9664054272140467;-3.708887200065824
0.02000000000000001;0.9626965400139809;-3.898400317263859
0.02100000000000001;0.958798139696717;-4.086926536664085
0.022000000000000013;0.954711213160053;-4.274403645555995
0.023000000000000013;0.9504368095144969;-4.460769843793801
0.024000000000000014;0.9459760396707032;-4.645963753276703
0.025000000000000015;0.9413300759174266;-4.829924419517981
0.026000000000000016;0.9365001514979084;-5.012591311831329
0.027000000000000017;0.9314875601860771;-5.193904325754067
0.028000000000000018;0.9262936558603231;-5.373803789270258
0.02900000000000002;0.9209198520710528;-5.55223047308956
0.03000000000000002;0.9153676215979633;-5.729125604515584
0.03100000000000002;0.9096384959934477;-5.904430884127129
0.03200000000000002;0.9037340651093205;-6.078088504445689
0.03300000000000002;0.8976559766048748;-6.250041169855069
0.03400000000000002;0.8914059354350197;-6.42023211719183
0.035000000000000024;0.8849857033178278;-6.588605136586834
0.036000000000000025;0.8783970981812409;-6.755104592280625
0.037000000000000026;0.8716419935889603;-6.919675443247217
0.03800000000000003;0.8647223181457131;-7.082263263540616
0.03900000000000003;0.8576400548821724;-7.242814262330186
0.04000000000000003;0.8503972406198422;-7.401275303621026
0.04100000000000003;0.8429959653162212;-7.557593925670052
0.04200000000000003;0.8354383713905511;-7.711718360113232
0.04300000000000003;0.8277266530304379;-7.863597550818369
0.04400000000000003;0.8198630554796196;-8.013181172474328
0.04500000000000003;0.8118498743071452;-8.160419648923064
0.046000000000000034;0.8036894546582221;-8.305264171236741
0.047000000000000035;0.7953841904869855;-8.447666715538917
0.048000000000000036;0.7869365237714467;-8.587580060566218
0.04900000000000004;0.7783489437108805;-8.724957804965427
0.05000000000000004;0.769623985905915;-8.859754384319826
0.05100000000000004;0.7607642315215952;-8.991925087898263
0.05200000000000004;0.751772306433697;-9.12142607512025
0.05300000000000004;0.7426508803585767;-9.248214391730405
0.05400000000000004;0.7334026659668463;-9.372247985675795
0.05500000000000004;0.7240304179811706;-9.49348572267984
0.05600000000000004;0.7145369322584908;-9.611887401506772
0.057000000000000044;0.7049250448569842;-9.727413768910697
0.058000000000000045;0.6951976310880735;-9.840026534263625
0.059000000000000045;0.6853576045538099;-9.949688383856882
0.060000000000000046;0.6754079161699529;-10.056362994870527
0.06100000000000005;0.6653515531750824;-10.160015049005514
0.06200000000000005;0.655191538126077;-10.260610245773432
0.06300000000000004;0.6449309278803037;-10.358115315438818
0.06400000000000004;0.6345728125648651;-10.452498031609158
0.06500000000000004;0.6241203145332561;-10.543727223467727
0.06600000000000004;0.6135765873097884;-10.631772787644671
0.06700000000000005;0.6029448145221437;-10.716605699721748
0.06800000000000005;0.5922282088224219;-10.798198025366311
0.06900000000000005;0.5814300107970555;-10.87652293109023
0.07000000000000005;0.5705534878659654;-10.951554694629621
0.07100000000000005;0.5596019331713356;-11.0232687149413
0.07200000000000005;0.5485786644563941;-11.091641521812063
0.07300000000000005;0.5374870229345818;-11.156650785077058
0.07400000000000005;0.5263303721495047;-11.218275323443553
0.07500000000000005;0.5151120968260612;-11.276495112916647
0.07600000000000005;0.5038356017131447;-11.331291294823538
0.07700000000000005;0.4925043104183211;-11.382646183433124
0.07800000000000006;0.48112166423488784;-11.430543273167853
0.07900000000000006;0.46969112096172017;-11.474967245404892
0.08000000000000006;0.45821615371631524;-11.515903974863805
0.08100000000000006;0.4467002497414515;-11.553340535578075
0.08200000000000006;0.4351469092058735;-11.587265206447984
0.08300000000000006;0.4235596439994256;-11.61766747637246
0.08400000000000006;0.4119419765230531;-11.644538048957711
0.08500000000000006;0.4002974384740954;-11.667868846800516
0.08600000000000006;0.388629569627295;-11.687653015344326
0.08700000000000006;0.3769419166119506;-11.70388492630634
0.08800000000000006;0.36523803168564434;-11.716560180673985
0.08900000000000007;0.3535214715049704;-11.725675611269288
0.09000000000000007;0.3417957958937012;-11.731229284879854
0.09100000000000007;0.33006456660882144;-11.733220503955279
0.09200000000000007;0.31833134610486613;-11.731649807867974
0.09300000000000007;0.3065996962969983;-11.72651897373755
0.09400000000000007;0.2948731773232607;-11.717831016818051
0.09500000000000007;0.28315534630644257;-11.705590190447515
0.09600000000000007;0.2714497561159949;-11.689801985559418
0.09700000000000007;0.2597599541304354;-11.670473129755804
0.09800000000000007;0.2480894810006795;-11.647611585941991
0.09900000000000007;0.23644186941473738;-11.621226550522932
0.10000000000000007;0.22482064286421458;-11.591328451161456
0.10100000000000008;0.21322931441305323;-11.557928944098776
0.10200000000000008;0.20167138546895447;-11.521040911037783
0.10300000000000008;0.19015034455791674;-11.480678455589837
0.10400000000000008;0.17866966610232696;-11.436856899285889
0.10500000000000008;0.1672328092030411;-11.389592777152956
0.10600000000000008;0.15584321642588808;-11.338903832857076
0.10700000000000008;0.14450431259303104;-11.284809013414096
0.10800000000000008;0.13321950357961698;-11.227328463469716
0.10900000000000008;0.1219921751161474;-11.166483519150463
0.11000000000000008;0.11082569159699707;-11.102296701487308
0.11100000000000008;0.09972339489550988;-11.03479170941391
0.11200000000000009;0.08868860318609606;-10.963993412341548
0.11300000000000009;0.07772460977375431;-10.889927842312952
0.11400000000000009;0.06683468193144135;-10.812622185737464
0.11500000000000009;0.05602205974570394;-10.73210477471002
0.11600000000000009;0.04528995497099396;-10.648405077916665
0.11700000000000009;0.03464154989307733;-10.561553691129438
0.11800000000000009;0.02407999620194776;-10.471582327293577
0.11900000000000009;0.013608413874654363;-10.378523806210227
0.12000000000000009;0.003229890068444221;-10.282412043817876
0.1210000000000001;-0.007052521975373501;-10.183282041075984
0.1220000000000001;-0.017235804016449415;-10.081169872454334
0.1230000000000001;-0.027316973888903626;-9.976112674031853
0.1240000000000001;-0.03729308656293537;-9.86814863120872
0.12500000000000008;-0.047161235194143905;-9.757316966035782
0.12600000000000008;-0.056918552160179645;-9.643657924165383
0.12700000000000009;-0.0665622100843453;-9.527212761427917
0.12800000000000009;-0.07608942284577327;-9.408023730038465
0.1290000000000001;-0.08549744657581154;-9.286134064438087
0.1300000000000001;-0.09478358064024957;-9.161587966774437
0.1310000000000001;-0.10394516860702391;-9.034430592026526
0.1320000000000001;-0.11297959919905057;-8.904708032778547
0.1330000000000001;-0.12188430723182891;-8.772467303647852
0.1340000000000001;-0.13065677453547692;-8.637756325372255
0.1350000000000001;-0.13929453086084922;-8.500623908562025
0.1360000000000001;-0.1477951547694114;-8.36111973712195
0.1370000000000001;-0.15615627450653335;-8.219294351349125
0.1380000000000001;-0.16437556885788257;-8.075199130712054
0.1390000000000001;-0.1724507679885948;-7.9288862763169705
0.1400000000000001;-0.18037965426491165;-7.780408793067238
0.1410000000000001;-0.18816006305797892;-7.629820471521867
0.1420000000000001;-0.19578988352950094;-7.477175869459356
0.1430000000000001;-0.20326705939896028;-7.322530293153054
0.1440000000000001;-0.21058958969211344;-7.165939778364437
0.1450000000000001;-0.21775552947047783;-7.0074610710608
0.1460000000000001;-0.22476299054153867;-6.847151607863887
0.1470000000000001;-0.23161014214940248;-6.685069496236209
0.1480000000000001;-0.23829521164563844;-6.521273494411764
0.1490000000000001;-0.24481648514005022;-6.355822991078074
0.1500000000000001;-0.25117230813112845;-6.188777984816531
0.1510000000000001;-0.257361086115945;-6.020199063308062
0.1520000000000001;-0.263381285179253;-5.8501473823112935
0.1530000000000001;-0.26923143256156434;-5.678684644420474
0.1540000000000001;-0.2749101172059848;-5.505873077610463
0.1550000000000001;-0.28041599028359526;-5.331775413576204
0.1560000000000001;-0.28574776569717136;-5.156454865874155
0.1570000000000001;-0.2909042205630455;-4.9799751078732735
0.1580000000000001;-0.2958841956709188;-4.802400250523164
0.1590000000000001;-0.3006865959214419;-4.6237948199471335
0.16000000000000011;-0.305310390741389;-4.4442237348679
0.16100000000000012;-0.30975461447625685;-4.263752283873853
0.16200000000000012;-0.31401836676013073;-4.082446102533734
0.16300000000000012;-0.3181008128626645;-3.900371150367747
0.16400000000000012;-0.3220011840130322;-3.7175936876831064
0.16500000000000012;-0.32571877770071533;-3.534180252282108
0.16600000000000012;-0.3292529579529974;-3.35019763605094
0.16700000000000012;-0.33260315558904835;-3.165712861437288
0.16800000000000012;-0.33576886845048576;-2.9807931578251052
0.16900000000000012;-0.3387496616083109;-2.7955059378147915
0.17000000000000012;-0.3415451675461258;-2.609918773417021
0.17100000000000012;-0.3441550863195428;-2.4240993721687536
0.17200000000000013;-0.3465791856917116;-2.238115553179643
0.17300000000000013;-0.3488173012448913;-2.0520352231174446
0.17400000000000013;-0.3508693364680086;-1.8659263521407468
0.17500000000000013;-0.3527352628201494;-1.6798569497875673
0.17600000000000013;-0.354415119769937;-1.4938950408283913
0.17700000000000013;-0.3559090148107654;-1.3081086410920768
0.17800000000000013;-0.35721712345185747;-1.1225657332732275
0.17900000000000013;-0.3583396891851307;-0.9373342427295932
0.18000000000000013;-0.3592770234278603;-0.7524820132781164
0.18100000000000013;-0.3600295054411384;-0.568076782998135
0.18200000000000013;-0.36059758222413657;-0.3841861600503915
0.18300000000000013;-0.36098176838418694;-0.20087759852040762
0.18400000000000014;-0.3611826459827074;-0.01821837429482903
0.18500000000000014;-0.3612008643570022;0.16372443902061484
0.18600000000000014;-0.36103713991798153;0.3448839941330891
0.18700000000000014;-0.3606922559238484;0.5251936940358388
0.18800000000000014;-0.36016706222981254;0.704587215914131
0.18900000000000014;-0.35946247501389844;0.8829985349753241
0.19000000000000014;-0.3585794764789231;1.0603619481946538
0.19100000000000014;-0.3575191145307284;1.236612097968102
0.19200000000000014;-0.3562825024327602;1.4116839956639287
0.19300000000000014;-0.3548708184370962;1.5855130450644315
0.19400000000000014;-0.35328530539203173;1.7580350656894983
0.19500000000000015;-0.35152727032634223;1.9291863159935323
0.19600000000000015;-0.3495980840103487;2.0989035164274337
0.19700000000000015;-0.34749918049392114;2.2671238723573497
0.19800000000000015;-0.3452320566215638;2.4337850968318255
0.19900000000000015;-0.3427982715247319;2.598825433189301
0.20000000000000015;-0.3401994460915426;2.7621836774975743
0.20100000000000015;-0.33743726241404504;2.9237992008173297
0.20200000000000015;-0.3345134632132277;3.0836119712814605
0.20300000000000015;-0.3314298512419463;3.241562575982338
0.20400000000000015;-0.32818828866596395;3.397592242658968
0.20500000000000015;-0.3247906964233049;3.551642861176222
0.20600000000000016;-0.32123905356212856;3.7036570047882766
0.20700000000000016;-0.3175353965573402;3.8535779511785524
0.20800000000000016;-0.31368181860616173;4.0013497032684295
0.20900000000000016;-0.30968046890289336;4.146917009787203
0.21000000000000016;-0.30553355189310627;4.290225385595654
0.21100000000000016;-0.3012433265075106;4.431221131755899
0.21200000000000016;-0.29681210537575464;4.569851355340081
0.21300000000000016;-0.29224225402041437;4.706063988970652
0.21400000000000016;-0.2875361900314438;4.8398078100850634
0.21500000000000016;-0.2826963822213587;4.971032459917779
0.21600000000000016;-0.2777253497614409;5.099688462192532
0.21700000000000016;-0.27262566129924837;5.225727241518049
0.21800000000000017;-0.26739993405773027;5.349101141480301
0.21900000000000017;-0.2620508329162499;5.469763442424656
0.22000000000000017;-0.25658106947382514;5.587668378921306
0.22100000000000017;-0.25099340109490387;5.702771156907451
0.22200000000000017;-0.24529062993799652;5.815027970499902
0.22300000000000017;-0.23947560196749665;5.924396018471756
0.22400000000000017;-0.2335512059490251;6.030833520387018
0.22500000000000017;-0.227520372428638;6.1342997323871415
0.22600000000000017;-0.22138607269625074;6.234754962623486
0.22700000000000017;-0.21515131773362736;6.332160586329949
0.22800000000000017;-0.20881915714729743;6.426479060530064
0.22900000000000018;-0.20239267808676745;6.517673938372952
0.23000000000000018;-0.19587500414839432;6.605709883092767
0.23100000000000018;-0.18926929426530142;6.69055268158623
0.23200000000000018;-0.1825787415837151;6.772169257603184
0.23300000000000018;-0.17580657232611202;6.850527684545009
0.23400000000000018;-0.16895604464156702;6.9255971978660655
0.23500000000000018;-0.16203044744370107;6.997348207073339
0.23600000000000018;-0.15503309923662756;7.065752307319676
0.23700000000000018;-0.14796734692930757;7.13078229058609
0.23800000000000018;-0.1408365646387214;7.192412156448797
0.23900000000000018;-0.13364415248227238;7.250617122426759
0.24000000000000019;-0.12639353535984574;7.305373633905645
0.2410000000000002;-0.11908816172594007;7.3566593736343355
0.2420000000000002;-0.11173150235230576;7.404453270790132
0.2430000000000002;-0.10432704908151572;7.448735509609084
0.2440000000000002;-0.09687831357190647;7.489487537577966
0.2450000000000002;-0.0893888260343285;7.526692073184533
0.2460000000000002;-0.0818621339611441;7.560333113222946
0.2470000000000002;-0.07430180084792107;7.5903959396513025
0.2480000000000002;-0.06671140490826981;7.616867125998438
0.2490000000000002;-0.05909453778227123;7.639734543317295
0.25000000000000017;-0.05145480323895428;7.658987365682292
0.25100000000000017;-0.04379581587327226;7.674616075228363
0.25200000000000017;-0.03612119979804344;7.686612466729372
0.25300000000000017;-0.028434587331313644;7.694969651713891
0.25400000000000017;-0.020739617679599694;7.6996820621164375
0.25500000000000017;-0.013039935617483563;7.700745453462401
0.25600000000000017;-0.00533919016402161;7.6981569075851235
0.2570000000000002;0.0023589667435636955;7.691914834873696
0.2580000000000002;0.010050881578437462;7.682018976050251
0.2590000000000002;0.017732900554487625;7.6684704034756495
0.2600000000000002;0.02540137095796324;7.651271521982673
0.2610000000000002;0.033052642479945785;7.630426069235953
0.2620000000000002;0.04068306854918186;7.605939115618082
0.2630000000000002;0.04828900766479986;7.577817063641482
0.2640000000000002;0.055866824728441226;7.54606764688579
0.2650000000000002;0.06341289237532734;7.510699928460686
0.2660000000000002;0.07092359230378777;7.4717242989942765
0.2670000000000002;0.07839531660278194;7.429152474147244
0.2680000000000002;0.08582446907692917;7.382997491653268
0.2690000000000002;0.09320746656858275;7.33327370788625
0.2700000000000002;0.10054074027646843;7.279996793955166
0.2710000000000002;0.10782073707042343;7.223183731327407
0.2720000000000002;0.11504392080175078;7.162852806981819
0.2730000000000002;0.12220677360873279;7.099023608092616
0.2740000000000002;0.12930579721682534;7.031717016245672
0.2750000000000002;0.1363375142330706;6.960955201188746
0.2760000000000002;0.14329846943425972;6.886761614117459
0.2770000000000002;0.15018523104837714;6.809160980498977
0.2780000000000002;0.15699439202887575;6.728179292435415
0.2790000000000002;0.16372257132131085;6.643843800569342
0.2800000000000002;0.1703664151218799;6.556183005533767
0.2810000000000002;0.1769225981274138;6.465226648949218
0.2820000000000002;0.1833878247763633;6.37100570397069
0.2830000000000002;0.18975883048033396;6.27355236538736
0.2840000000000002;0.19603238284572153;6.172900039278161
0.2850000000000002;0.20220528288499942;6.0690833322265325
0.2860000000000002;0.2082743662172259;5.9621380400976145
0.2870000000000002;0.21423650425732366;5.852101136381621
0.2880000000000002;0.22008860539370556;5.739010760106983
0.2890000000000002;0.22582761615381228;5.6229062033272115
0.2900000000000002;0.23145052235713956;5.5038278981854445
0.2910000000000002;0.23695435025532496;5.381817403561009
0.2920000000000002;0.24233616765888596;5.256917391302161
0.2930000000000002;0.24759308505018848;5.129171632049612
0.2940000000000002;0.25272225668223786;4.998624980655499
0.2950000000000002;0.2577208816628932;4.865323361202426
0.2960000000000002;0.26258620502409596;4.729313751627743
0.2970000000000002;0.2673155187757239;4.590644167958009
0.2980000000000002;0.2719061629436818;4.449363648158823
0.2990000000000002;0.27635552659184104;4.30552223560547
0.3000000000000002;0.2806610488274465;4.1591709621799575
0.3010000000000002;0.28482021978962646;4.010361830999835
0.3020000000000002;0.2888305816206263;3.8591477987848752
0.3030000000000002;0.2926897294194112;3.705582757867322
0.3040000000000002;0.2963953121772788;3.549721517851811
0.3050000000000002;0.2999450336951305;3.3916197869312326
0.3060000000000002;0.30333665348206174;3.2313341528645902
0.3070000000000002;0.30656798763492615;3.068922063623645
0.3080000000000002;0.30963690969855007;2.904441807714517
0.3090000000000002;0.31254135150626466;2.737952494181304
0.3100000000000002;0.31527930400044585;2.5695140322981067
0.3110000000000002;0.31784881803274406;2.399187110956667
0.3120000000000002;0.32024800514370066;2.2270331777566525
0.3130000000000002;0.32247503832145724;2.053114417805442
0.3140000000000002;0.32452815273926267;1.8774937322349663
0.3150000000000002;0.3264056464714976;1.7002347164428229
0.3160000000000002;0.3281058811879406;1.52140163806512
0.3170000000000002;0.3296272828260056;1.3410594146886794
0.3180000000000002;0.33096834224069427;1.1592735913100813
0.31900000000000023;0.3321276158320044;0.9761103175496442
0.32000000000000023;0.333103726149554;0.791636324627841
0.32100000000000023;0.33389536247418194;0.6059189021123108
0.32200000000000023;0.33450128137629426;0.4190258744434292
0.32300000000000023;0.3349203072507377;0.23102557724656975
0.32400000000000023;0.3351513328279843;0.041986833439262045
0.32500000000000023;0.33519331966142357;-0.1480210708584699
0.32600000000000023;0.3350452985905651;-0.3389284106022258
0.32700000000000023;0.3347063701799629;-0.5306650462813641
0.32800000000000024;0.33417570513368156;-0.7231604485486445
0.32900000000000024;0.33345254468513297;-0.9163437230128031
0.33000000000000024;0.33253620096212017;-1.1101436351854117
0.33100000000000024;0.33142605732693464;-1.3044886355733245
0.33200000000000024;0.3301215686913614;-1.499306884907849
0.33300000000000024;0.32862226180645354;-1.6945262795020812
0.33400000000000024;0.32692773552695154;-1.8900744767271402
0.33500000000000024;0.3250376610502244;-2.085878920598714
0.33600000000000024;0.3229517821296258;-2.2818668674647467
