time;position;velocity
0;1;0
0.001;1.0;-0.19739208802178718
0.002;0.9998026079119782;-0.3947280684071387
0.003;0.999407879843571;-0.5919440545748119
0.004;0.9988159357889962;-0.7889761958728707
0.005;0.9980269595931233;-0.9857607000229804
0.006;0.9970411988931003;-1.1822338555465663
0.007;0.9958589650375537;-1.3783320541648763
0.008;0.9944806329833888;-1.5739918131649955
0.009000000000000001;0.9929066411702239;-1.7691497977238728
0.010000000000000002;0.9911374913725;-1.96374284318243
0.011000000000000003;0.9891737485293175;-2.157707977261846
0.012000000000000004;0.9870160405520556;-2.3509824422141232
0.013000000000000005;0.9846650581098415;-2.543503716899072
0.014000000000000005;0.9821215543929425;-2.7352095387798627
0.015000000000000006;0.9793863448541626;-2.9260379258293403
0.016000000000000007;0.9764603069283333;-3.1159271983393078
0.017000000000000008;0.973344379729994;-3.3048160006250353
0.01800000000000001;0.970039563729369;-3.4926433226172775
0.01900000000000001;0.9665469204067517;-3.6793485213341213
0.02000000000000001;0.9628675718854176;-3.864871342225037
0.02100000000000001;0.9590027005431926;-4.049151940379539
0.022000000000000013;0.954953548602813;-4.232130901592912
0.023000000000000013;0.9507214177012201;-4.413749263281523
0.024000000000000014;0.9463076684379386;-4.59394853524026
0.025000000000000015;0.9417137199026983;-4.7726707202347365
0.026000000000000016;0.9369410491824635;-4.949858334420911
0.027000000000000017;0.9319911908480425;-5.125454427584883
0.028000000000000018;0.9268657364204576;-5.299402603195631
0.02900000000000002;0.9215663338172619;-5.47164703826359
0.03000000000000002;0.9160946867789983;-5.642132502997965
0.03100000000000002;0.9104525542760004;-5.8108043802558145
0.03200000000000002;0.9046417498957445;-5.977608684775949
0.03300000000000002;0.8986641412109686;-6.14249208219082
0.03400000000000002;0.8925216491287777;-6.305401907809613
0.035000000000000024;0.8862162472209681;-6.466286185165855
0.036000000000000025;0.8797499610358023;-6.625093644322933
0.037000000000000026;0.8731248673914793;-6.781773739931002
0.03800000000000003;0.8663430936515483;-6.936276669028834
0.03900000000000003;0.8594068169825194;-7.088553388584285
0.04000000000000003;0.8523182635939351;-7.238555632767097
0.04100000000000003;0.845079707961168;-7.386235929947911
0.04200000000000003;0.8376934720312201;-7.531547619417391
0.04300000000000003;0.8301619244118027;-7.674444867819529
0.04400000000000003;0.8224874795439832;-7.814882685293245
0.04500000000000003;0.8146725968586899;-7.952816941316528
0.046000000000000034;0.8067197799173733;-8.088204380247474
0.047000000000000035;0.7986315755371258;-8.22100263655665
0.048000000000000036;0.7904105729005692;-8.351170249745373
0.04900000000000004;0.7820594026508237;-8.47866667894455
0.05000000000000004;0.7735807359718792;-8.603452317188882
0.05100000000000004;0.7649772836546903;-8.725488505361316
0.05200000000000004;0.7562517951493289;-8.844737545802783
0.05300000000000004;0.7474070576035261;-8.961162715582327
0.05400000000000004;0.7384458948879438;-9.074728279422912
0.05500000000000004;0.7293711666085209;-9.185399502278246
0.05600000000000004;0.7201857671062426;-9.293142661556162
0.057000000000000044;0.7108926244446865;-9.397925058984146
0.058000000000000045;0.7014946993857023;-9.499715032112784
0.059000000000000045;0.6919949843535895;-9.598481965452997
0.060000000000000046;0.6823965023881365;-9.694196301243082
0.06100000000000005;0.6727023060868934;-9.78682954984169
0.06200000000000005;0.6629154765370517;-9.876354299743012
0.06300000000000004;0.6530391222373088;-9.962744227210598
0.06400000000000004;0.6430763780100981;-10.045974105526325
0.06500000000000004;0.6330304039045718;-10.126019813851201
0.06600000000000004;0.6229043840907206;-10.202858345694835
0.06700000000000005;0.6127015257450257;-10.2764678169905
0.06800000000000005;0.6024250579280351;-10.346827473772903
0.06900000000000005;0.5920782304542622;-10.413917699455887
0.07000000000000005;0.5816643127548063;-10.477720021707446
0.07100000000000005;0.5711865927330989;-10.538217118919569
0.07200000000000005;0.5606483756141794;-10.595392826270567
0.07300000000000005;0.5500529827879088;-10.64923214137771
0.07400000000000005;0.5394037506465311;-10.699721229538106
0.07500000000000005;0.528704029416993;-10.746847428555936
0.07600000000000005;0.5179571819884371;-10.790599253154275
0.07700000000000005;0.5071665827352828;-10.830966398969903
0.07800000000000006;0.4963356163363129;-10.86793974612964
0.07900000000000006;0.48546767659018325;-10.901511362406902
0.08000000000000006;0.47456616522777634;-10.931674505957298
0.08100000000000006;0.463634490721819;-10.958423627632278
0.08200000000000006;0.45267606709418673;-10.981754372869952
0.08300000000000006;0.44169431272131676;-11.00166358316237
0.08400000000000006;0.43069264913815436;-11.01814929709871
0.08500000000000006;0.41967449984105565;-11.031210750983943
0.08600000000000006;0.4086432890900717;-11.040848379032743
0.08700000000000006;0.39760244071103895;-11.047063813138497
0.08800000000000006;0.3865553768979004;-11.049859882217477
0.08900000000000007;0.37550551701568297;-11.04924061112837
0.09000000000000007;0.3644562764045546;-11.045211219167486
0.09100000000000007;0.35341106518538706;-11.037778118140155
0.09200000000000007;0.3423732870672469;-11.026948910008956
0.09300000000000007;0.3313463381572379;-11.012732384119564
0.09400000000000007;0.3203336057731183;-10.995138514005161
0.09500000000000007;0.3093384672591131;-10.974178453770508
0.09600000000000007;0.2983642888053426;-10.94986453405692
0.09700000000000007;0.28741442427128566;-10.922210257589544
0.09800000000000007;0.2764922140136961;-10.891230294308462
0.09900000000000007;0.2656009837193876;-10.856940476085327
0.10000000000000007;0.2547440432433023;-10.819357791027361
0.10100000000000008;0.24392468545227491;-10.778500377370694
0.10200000000000008;0.2331461850749042;-10.734387516965187
0.10300000000000008;0.222411797557939;-10.68703962835299
0.10400000000000008;0.211724757929586;-10.636478259443285
0.10500000000000008;0.2010882796701427;-10.58272607978575
0.10600000000000008;0.19050555359035695;-10.525806872445466
0.10700000000000008;0.17997974671791148;-10.465745525482106
0.10800000000000008;0.16951400119242938;-10.402568023036398
0.10900000000000008;0.15911143316939297;-10.336301436027002
0.11000000000000008;0.14877513173336596;-10.266973912461035
0.11100000000000008;0.13850815782090492;-10.194614667361693
0.11200000000000009;0.1283135431535432;-10.119253972316475
0.11300000000000009;0.11819428918122672;-10.04092314464971
0.11400000000000009;0.108153366036577;-9.959654536223178
0.11500000000000009;0.09819371150035382;-9.87548152186878
0.11600000000000009;0.08831822997848503;-9.788438487457332
0.11700000000000009;0.07852979149102768;-9.698560817607682
0.11800000000000009;0.06883123067342;-9.605884883040476
0.11900000000000009;0.05922534579037951;-9.510448027581047
0.12000000000000009;0.04971489776279846;-9.412288554816003
0.1210000000000001;0.04030260920798245;-9.311445714408215
0.1220000000000001;0.030991163493574225;-9.207959688075047
0.1230000000000001;0.02178320380549917;-9.101871575234766
0.1240000000000001;0.012681332230264394;-8.993223378326212
0.12500000000000008;0.0036881088519383;-8.8820579878069
0.12600000000000008;-0.005193949135868608;-8.768419166834864
0.12700000000000009;-0.01396236830270348;-8.652351535639648
0.12800000000000009;-0.022614719838343136;-8.533900555587975
0.1290000000000001;-0.03114862039393112;-8.413112512949716
0.1300000000000001;-0.039561732906880843;-8.290034502369911
0.1310000000000001;-0.04785176740925076;-8.164714410052676
0.1320000000000001;-0.056016481819303444;-8.037200896662954
0.1330000000000001;-0.0640536827159664;-7.907543379952146
0.1340000000000001;-0.07196122609591855;-7.775792017113784
0.1350000000000001;-0.07973701811303234;-7.641997686875481
0.1360000000000001;-0.08737901579990782;-7.506211971333494
0.1370000000000001;-0.09488522777124132;-7.368487137536342
0.1380000000000001;-0.10225371490877767;-7.228876118823988
0.1390000000000001;-0.10948259102760166;-7.087432495929195
0.1400000000000001;-0.11657002352353087;-6.944210477847766
0.1410000000000001;-0.12351423400137863;-6.799264882484409
0.1420000000000001;-0.13031349888386304;-6.6526511170811276
0.1430000000000001;-0.13696615000094417;-6.50442515843503
0.1440000000000001;-0.1434705751593792;-6.354643532912599
0.1450000000000001;-0.1498252186922918;-6.203363296267488
0.1460000000000001;-0.1560285819885593;-6.050642013269007
0.1470000000000001;-0.1620792240018283;-5.896537737148507
0.1480000000000001;-0.16797576173897683;-5.741108988870971
0.1490000000000001;-0.1737168707278478;-5.584414736239147
0.1500000000000001;-0.17930128546408697;-5.42651437283763
0.1510000000000001;-0.1847277998369246;-5.267467696824383
0.1520000000000001;-0.189995267533749;-5.107334889577197
0.1530000000000001;-0.19510260242332622;-4.9461764942026765
0.1540000000000001;-0.2000487789175289;-4.784053393915382
0.1550000000000001;-0.20483283231144428;-4.62102679029479
0.1560000000000001;-0.20945385910173908;-4.457158181427792
0.1570000000000001;-0.2139110172831669;-4.292509339944497
0.1580000000000001;-0.21820352662311138;-4.1271422909551285
0.1590000000000001;-0.2223306689140665;-3.9611192898958474
0.16000000000000011;-0.22629178820396234;-3.794502800291374
0.16100000000000012;-0.2300862910042537;-3.6273554714423013
0.16200000000000012;-0.233713646475696;-3.459740116045025
0.16300000000000012;-0.23717338659174103;-3.291719687752242
0.16400000000000012;-0.24046510627949327;-3.123357258681983
0.16500000000000012;-0.24358846353817526;-2.954715996883179
0.16600000000000012;-0.24654317953505844;-2.7858591437657596
0.16700000000000012;-0.2493290386788242;-2.6168499915033077
0.16800000000000012;-0.2519458886703275;-2.4477518604163024
0.16900000000000012;-0.2543936405307438;-2.278628076343988
0.17000000000000012;-0.2566722686070878;-2.109541948012911
0.17100000000000012;-0.25878181055510074;-1.9405567444101754
0.17200000000000013;-0.2607223672995109;-1.771735672169458
0.17300000000000013;-0.2624941029716804;-1.6031418529778243
0.17400000000000013;-0.26409724482465824;-1.4348383010113848
0.17500000000000013;-0.2655320831256696;-1.266887900407812
0.17600000000000013;-0.2667989710260774;-1.099353382783736
0.17700000000000013;-0.26789832440886113;-0.9322973048050138
0.17800000000000013;-0.2688306217136662;-0.7657820258178545
0.17900000000000013;-0.269596403739484;-0.59986968554876
0.18000000000000013;-0.2701962734250328;-0.43462218188121765
0.18100000000000013;-0.270630895606914;-0.27010114871705404
0.18200000000000013;-0.27090099675563106;-0.106367933930331
0.18300000000000013;-0.2710073646895614;0.05651642257836742
0.18400000000000014;-0.270950848266983;0.21849121071944336
0.18500000000000014;-0.2707323570562636;0.37949607193581225
0.18600000000000014;-0.27035286098432776;0.539471020800713
0.18700000000000014;-0.26981338996352705;0.6983564664841087
0.18800000000000014;-0.26911503349704297;0.85609323408003
0.18900000000000014;-0.26825894026296293;1.012622585787263
0.19000000000000014;-0.26724631767717566;1.1678862419358351
0.19100000000000014;-0.26607843143523985;1.3218264018518042
0.19200000000000014;-0.26475660503338805;1.4743857645529161
0.19300000000000014;-0.2632822192688351;1.625507549267752
0.19400000000000014;-0.26165671171956734;1.7751355157710496
0.19500000000000015;-0.25988157620379626;1.923213984527949
0.19600000000000015;-0.2579583622192683;2.069687856639978
0.19700000000000015;-0.25588867436262835;2.2145026335856626
0.19800000000000015;-0.25367417172904266;2.3576044367487206
0.19900000000000015;-0.25131656729229396;2.498940026726873
0.20000000000000015;-0.24881762726556708;2.638456822414378
0.20100000000000015;-0.2461791704431527;2.7761029198514846
0.20200000000000015;-0.24340306752330124;2.9118271108340683
0.20300000000000015;-0.24049124041246717;3.0455789012768135
0.20400000000000015;-0.23744566151119034;3.17730852932338
0.20500000000000015;-0.23426835298186696;3.3069669831970843
0.20600000000000016;-0.2309613859986699;3.434506018785729
0.20700000000000016;-0.22752687997988416;3.559878176954281
0.20800000000000016;-0.2239670018029299;3.6830368005792304
0.20900000000000016;-0.22028396500235065;3.8039360512985256
0.21000000000000016;-0.21648002895105212;3.922530925971106
0.21100000000000016;-0.212557498025081;4.038777272840145
0.21200000000000016;-0.20851872075224084;4.152631807394217
0.21300000000000016;-0.20436608894484662;4.264052127920723
0.21400000000000016;-0.2001020368169259;4.372996730746004
0.21500000000000016;-0.1957290400861799;4.47942502515668
0.21600000000000016;-0.1912496150610232;4.583297347996895
0.21700000000000016;-0.1866663177130263;4.684574977936211
0.21800000000000017;-0.1819817427350901;4.783220149403061
0.21900000000000017;-0.17719852258568702;4.879196066178766
0.22000000000000017;-0.17231932651950826;4.97246691464723
0.22100000000000017;-0.16734685960486104;5.062997876695576
0.22200000000000017;-0.16228386172816545;5.150755142261089
0.22300000000000017;-0.15713310658590435;5.23570592151997
0.22400000000000017;-0.15189740066438437;5.31781845671351
0.22500000000000017;-0.14657958220767087;5.397062033607457
0.22600000000000017;-0.1411825201740634;5.473406992580449
0.22700000000000017;-0.13570911318148296;5.546824739337519
0.22800000000000017;-0.13016228844214545;5.6172877552448375
0.22900000000000018;-0.12454500068690061;5.684769607281957
0.23000000000000018;-0.11886023107961864;5.749244957607986
0.23100000000000018;-0.11311098612201065;5.810689572738235
0.23200000000000018;-0.10730029654927241;5.86908033232804
0.23300000000000018;-0.10143121621694437;5.924395237560583
0.23400000000000018;-0.09550682097938379;5.976613419135685
0.23500000000000018;-0.0895302075602481;6.02571514485668
0.23600000000000018;-0.08350449241539142;6.071681826812637
0.23700000000000018;-0.07743281058857877;6.114496028153309
0.23800000000000018;-0.07131831456042546;6.154141469454374
0.23900000000000018;-0.06516417309097108;6.190603034670639
0.24000000000000019;-0.05897357005630044;6.223866776675048
0.2410000000000002;-0.05274970327962539;6.253919922381479
0.2420000000000002;-0.0464957833572439;6.2807508774494565
0.2430000000000002;-0.04021503247979444;6.304349230569049
0.2440000000000002;-0.03391068324922538;6.3247057573244
0.2450000000000002;-0.027585977491900976;6.341812423634438
0.2460000000000002;-0.021244165068266534;6.35566238876952
0.2470000000000002;-0.014888502679497009;6.366250007942872
0.2480000000000002;-0.008522252671554131;6.373570834475852
0.2490000000000002;-0.0021486818370782734;6.377621621536222
0.25000000000000017;0.0042289397844577775;6.3784003234487585
0.25100000000000017;0.010607340107906541;6.3759060965776815
0.25200000000000017;0.01698324620448423;6.3701392997805355
0.25300000000000017;0.02335338550426477;6.361101494433321
0.25400000000000017;0.029714486998698095;6.3487954440267975
0.25500000000000017;0.0360632824427249;6.3332251133340725
0.25600000000000017;0.04239650755605898;6.314395667149698
0.2570000000000002;0.04871090322320868;6.2923134686006925
0.2580000000000002;0.05500321669180938;6.266986077030018
0.2590000000000002;0.061270202768839405;6.238422245453231
0.2600000000000002;0.06750862501429264;6.206631917589149
0.2610000000000002;0.0737152569318818;6.171626224465541
0.2620000000000002;0.07988688315634734;6.133417480600992
0.2630000000000002;0.08602030063694834;6.092019179764257
0.2640000000000002;0.0921123198167126;6.047445990312561
0.2650000000000002;0.09815976580702516;5.999713750110434
0.2660000000000002;0.1041594795571356;5.948839461030866
0.2670000000000002;0.11010831901816648;5.894841283040656
0.2680000000000002;0.11600316030120714;5.837738527872032
0.2690000000000002;0.12184089882907917;5.777551652282726
0.2700000000000002;0.1276184504813619;5.714302250906863
0.2710000000000002;0.13333275273226874;5.648013048699139
0.2720000000000002;0.13898076578096788;5.5787078929749425
0.2730000000000002;0.14455947367394284;5.506411745049195
0.2740000000000002;0.15006588541899205;5.431150671476824
0.2750000000000002;0.1554970360904689;5.352951834897951
0.2760000000000002;0.16084998792536684;5.2718434844909865
0.2770000000000002;0.16612183140985784;5.187854946036989
0.2780000000000002;0.17130968635589483;5.101016611598766
0.2790000000000002;0.1764107029674936;5.011359928818345
0.2800000000000002;0.18142206289631194;4.918917389836565
0.2810000000000002;0.1863409802861485;4.823722519838695
0.2820000000000002;0.1911647028059872;4.725809865230087
0.2830000000000002;0.1958905126712173;4.62521498144604
0.2840000000000002;0.20051572765266334;4.5219744204001575
0.2850000000000002;0.20503770207306352;4.4161257175756115
0.2860000000000002;0.20945382779063912;4.307707378763865
0.2870000000000002;0.213761535169403;4.196758866455524
0.2880000000000002;0.21795829403585854;4.08332058588811
0.2890000000000002;0.22204161462174665;3.967433870755678
0.2900000000000002;0.22600904849250233;3.8491409685853117
0.2910000000000002;0.22985818946108766;3.7284850257856594
0.2920000000000002;0.2335866744868733;3.6055100723727835
0.2930000000000002;0.2371921845592461;3.480261006378713
0.2940000000000002;0.2406724455656248;3.3527835779482063
0.2950000000000002;0.24402522914357302;3.2231243731293353
0.2960000000000002;0.24724835351670235;3.0913307973636206
0.2970000000000002;0.250339684314066;2.9574510586815457
0.2980000000000002;0.25329713537274756;2.82153415060939
0.2990000000000002;0.25611866952335693;2.6836298347934244
0.3000000000000002;0.25880229935815036;2.5437886233476052
0.3010000000000002;0.26134608798149794;2.402061760931016
0.3020000000000002;0.26374814974242894;2.258501206561389
0.3030000000000002;0.26600665094899034;2.1131596151711416
0.3040000000000002;0.2681198105641615;1.9660903189124523
0.3050000000000002;0.27008590088307394;1.817347308217994
0.3060000000000002;0.2719032481912919;1.6669852126240232
0.3070000000000002;0.27357023340391595;1.515059281362615
0.3080000000000002;0.2750852926852786;1.3616253637299152
0.3090000000000002;0.2764469180490085;1.206739889237362
0.3100000000000002;0.27765365793824587;1.0504598475529034
0.3110000000000002;0.2787041177857988;0.8928427682393176
0.3120000000000002;0.2795969605540381;0.7339467002968145
0.3130000000000002;0.2803309072543349;0.5738301915171655
0.3140000000000002;0.2809047374458521;0.41255226765667796
0.3150000000000002;0.2813172897135088;0.2501724114353968
0.3160000000000002;0.28156746212494416;0.08675054136997609
0.3170000000000002;0.28165421266631413;-0.07765300955227408
0.3180000000000002;0.28157655965676187;-0.2429775153506044
0.31900000000000023;0.28133358214141124;-0.4091618786716905
0.32000000000000023;0.28092442026273956;-0.5761446525464757
0.32100000000000023;0.2803482756101931;-0.7438640622752757
0.32200000000000023;0.2796044115479178;-0.9122580274333798
0.32300000000000023;0.27869215352048443;-1.0812641839893424
0.32400000000000023;0.2776108893364951;-1.2508199065281138
0.32500000000000023;0.276360069429967;-1.420862330571125
0.32600000000000023;0.27493920709939584;-1.5913283749854035
0.32700000000000023;0.27334787872441046;-1.7621547644737634
0.32800000000000024;0.2715857239599367;-1.9332780521380868
0.32900000000000024;0.2696524459077986;-2.1046346421076834
0.33000000000000024;0.2675478112656909;-2.2761608122246915
0.33100000000000024;0.2652716504534662;-2.447792736778465
0.33200000000000024;0.2628238577166877;-2.61946650928087
0.33300000000000024;0.26020439120740685;-2.7911181652743955
0.33400000000000024;0.25741327304213246;-2.9626837051649826
0.33500000000000024;0.25445058933696746;-3.134099117071449
0.33600000000000024;0.251316490219896;-3.3053003996833947
0.33700000000000024;0.24801118982021259;-3.476223585119463
