time;position;velocity
0;1;0
0.0001;1.0;-0.019739208802178717
0.0002;0.9999980354080414;-0.039478417604357434
0.00030000000000000003;0.9999942239078449;-0.05921759029300114
0.0004;0.999988447221811;-0.07895669043518061
0.0005;0.999981069879657;-0.09869570039699942
0.0006000000000000001;0.9999720229569058;-0.11843459029928069
0.0007000000000000001;0.9999610857550874;-0.138173319913393
0.0008000000000000001;0.999948224499579;-0.15791185259063178
0.0009000000000000002;0.9999334060671724;-0.17765015020031966
0.0010000000000000002;0.9999166222866255;-0.1973881744284423
0.0011000000000000003;0.999897867859123;-0.21712588662042706
0.0012000000000000003;0.9998771415897235;-0.23686325876109915
0.0013000000000000004;0.9998544422273555;-0.25660024807349513
0.0014000000000000004;0.9998297692140263;-0.27633681117916903
0.0015000000000000005;0.9998031224453648;-0.2960729069915279
0.0016000000000000005;0.9997745019818952;-0.31580849598625854
0.0017000000000000006;0.9997439079087537;-0.3355435392114914
0.0018000000000000006;0.999711340298883;-0.35527799778935554
0.0019000000000000006;0.9996767992151117;-0.37501183277698985
0.0020000000000000005;0.9996402847183068;-0.3947450051709388
0.0021000000000000003;0.9996017968716301;-0.4144774759239422
0.0022;0.9995613357422307;-0.43420920595433066
0.0023;0.999518901401998;-0.4539401561554322
0.0024;0.9994744939271502;-0.4736702873924916
0.0024999999999999996;0.9994281133978663;-0.493399560496331
0.0025999999999999994;0.9993797598981033;-0.5131279362561828
0.0026999999999999993;0.999329433515629;-0.532855375413931
0.002799999999999999;0.9992771343421001;-0.5525818386590077
0.002899999999999999;0.9992228624731162;-0.5723072866233139
0.0029999999999999988;0.9991666180082319;-0.5920316798757257
0.0030999999999999986;0.9991084010509522;-0.6117549789162186
0.0031999999999999984;0.9990482117087287;-0.6314771441701206
0.0032999999999999982;0.9989860500929622;-0.6511981359811312
0.003399999999999998;0.9989219163190126;-0.6709179146052127
0.003499999999999998;0.9988558105062098;-0.6906364402044736
0.0035999999999999977;0.998787732777863;-0.7103536728407652
0.0036999999999999976;0.9987176832612712;-0.7300695724691031
0.0037999999999999974;0.9986456620877322;-0.7497840989310603
0.0038999999999999972;0.9985716693925537;-0.7694972119481877
0.0039999999999999975;0.9984957053150653;-0.7892088711154547
0.004099999999999998;0.99841776999863;-0.808919035895005
0.004199999999999998;0.9983378635906578;-0.8286276656093424
0.004299999999999998;0.9982559862426206;-0.848334719434381
0.0043999999999999985;0.9981721381100654;-0.8680401563933384
0.004499999999999999;0.9980863193526291;-0.8877439353507304
0.004599999999999999;0.9979985301340537;-0.9074460150062255
0.004699999999999999;0.9979087706222027;-0.9271463538883757
0.0048;0.9978170409890784;-0.9468449103484862
0.0049;0.9977233414108392;-0.9665416425547333
0.005;0.9976276720678172;-0.986236508486496
0.0051;0.9975300331445375;-1.005929465928821
0.005200000000000001;0.9974304248297363;-1.025620472467001
0.005300000000000001;0.9973288473163818;-1.0453094854813232
0.005400000000000001;0.9972253008016937;-1.0649964621419998
0.005500000000000001;0.997119785487164;-1.0846813594043025
0.005600000000000002;0.9970123015785786;-1.1043641340038894
0.005700000000000002;0.9969028492860386;-1.124044742452329
0.005800000000000002;0.9967914288239828;-1.1437231410328255
0.0059000000000000025;0.9966780404112102;-1.163399285796155
0.006000000000000003;0.9965626842709033;-1.1830731325568153
0.006100000000000003;0.996445360630651;-1.2027446368893944
0.006200000000000003;0.9963260697224727;-1.222413754125156
0.0063000000000000035;0.9962048117828428;-1.2420804393488483
0.006400000000000004;0.9960815870527147;-1.2617446473957326
0.006500000000000004;0.9959563957775455;-1.2814063328488376
0.006600000000000004;0.9958292382073218;-1.3010654500364391
0.0067000000000000046;0.9957001145965844;-1.320721953029762
0.006800000000000005;0.9955690252044541;-1.3403757956409061
0.006900000000000005;0.9954359702946576;-1.3600269314209954
0.007000000000000005;0.9953009501355534;-1.3796753136585482
0.007100000000000006;0.995163965000158;-1.3993208953780667
0.007200000000000006;0.9950250151661721;-1.4189636293388432
0.007300000000000006;0.9948841009160074;-1.4386034680339823
0.007400000000000006;0.994741222536813;-1.4582403636896328
0.007500000000000007;0.9945963803205017;-1.4778742682644306
0.007600000000000007;0.9944495745637775;-1.4975051334491443
0.007700000000000007;0.9943008055681615;-1.5171329106665243
0.0078000000000000074;0.9941500736400195;-1.5367575510713471
0.007900000000000008;0.9939973790905883;-1.5563790055506541
0.008000000000000007;0.9938427222360025;-1.5759972247241778
0.008100000000000007;0.9936861033973214;-1.5956121589449541
0.008200000000000006;0.9935275229005559;-1.6152237583001114
0.008300000000000005;0.9933669810766944;-1.6348319726118345
0.008400000000000005;0.9932044782617303;-1.6544367514384986
0.008500000000000004;0.9930400147966879;-1.6740380440759663
0.008600000000000003;0.9928735910276486;-1.6936357995590443
0.008700000000000003;0.9927052073057775;-1.713229966663092
0.008800000000000002;0.9925348639873491;-1.7328204939057785
0.008900000000000002;0.9923625614337732;-1.7524073295489824
0.009000000000000001;0.9921883000116208;-1.7719904216008275
0.0091;0.9920120800926494;-1.7915697178178507
0.0092;0.9918339020538282;-1.8111451657072943
0.0093;0.9916537662773631;-1.8307167125295198
0.009399999999999999;0.9914716731507219;-1.8502843053005342
0.009499999999999998;0.9912876230666586;-1.8698478907946274
0.009599999999999997;0.9911016164232375;-1.8894074155471112
0.009699999999999997;0.9909136536238575;-1.908962825857157
0.009799999999999996;0.9907237350772758;-1.928514067790725
0.009899999999999996;0.9905318611976316;-1.9480610871835826
0.009999999999999995;0.9903380324044687;-1.9676038296444012
0.010099999999999994;0.9901422491227589;-1.9871422405579318
0.010199999999999994;0.9899445117829244;-2.0066762650882515
0.010299999999999993;0.9897448208208598;-2.0262058481820757
0.010399999999999993;0.9895431766779543;-2.0457309345721306
0.010499999999999992;0.9893395798011132;-2.0652514687805836
0.010599999999999991;0.9891340306427789;-2.0847673951225247
0.01069999999999999;0.9889265296609523;-2.1042786577094916
0.01079999999999999;0.9887170773192127;-2.1237852004530424
0.01089999999999999;0.9885056740867383;-2.1432869670683594
0.010999999999999989;0.988292320438326;-2.1627839010778933
0.011099999999999988;0.9880770168544112;-2.1822759458150274
0.011199999999999988;0.987859763821086;-2.2017630444277754
0.011299999999999987;0.9876405618301187;-2.221245139882492
0.011399999999999987;0.987419411378972;-2.240722174967608
0.011499999999999986;0.9871963129708209;-2.260194092297369
0.011599999999999985;0.9869712671145701;-2.2796608343155946
0.011699999999999985;0.9867442743248716;-2.2991223432994317
0.011799999999999984;0.9865153351221412;-2.3185785613631182
0.011899999999999984;0.9862844500325754;-2.338029430461743
0.011999999999999983;0.9860516195881671;-2.357474892394999
0.012099999999999982;0.9858168443267217;-2.376914888810937
0.012199999999999982;0.9855801247918718;-2.396349361209697
0.012299999999999981;0.9853414615330932;-2.4157782509472385
0.01239999999999998;0.9851008551057184;-2.435201499239047
0.01249999999999998;0.9848583060709517;-2.4546190471638263
0.01259999999999998;0.9846138149958826;-2.4740308356671665
0.012699999999999979;0.9843673824534994;-2.4934368055651954
0.012799999999999978;0.9841190090227024;-2.5128368975481954
0.012899999999999977;0.9838686952883167;-2.5322310521842004
0.012999999999999977;0.9836164418411042;-2.5516192099225603
0.013099999999999976;0.9833622492777763;-2.571001311097474
0.013199999999999976;0.983106118201005;-2.59037729593149
0.013299999999999975;0.9828480492194347;-2.609747104538974
0.013399999999999974;0.9825880429476928;-2.629110676929533
0.013499999999999974;0.9823261000064005;-2.648467953011413
0.013599999999999973;0.9820622210221835;-2.6678188725948475
0.013699999999999973;0.9817964066276813;-2.6871633753953708
0.013799999999999972;0.9815286574615572;-2.7065014010370874
0.013899999999999971;0.9812589741685074;-2.725832889055902
0.01399999999999997;0.9809873573992703;-2.745157778902701
0.01409999999999997;0.9807138078106351;-2.7644760099464927
0.01419999999999997;0.9804383260654497;-2.7837875214775027
0.014299999999999969;0.9801609128326293;-2.8030922527102207
0.014399999999999968;0.9798815687871639;-2.8223901427864018
0.014499999999999968;0.9796002946101257;-2.8416811307780203
0.014599999999999967;0.9793170909886759;-2.860965155690177
0.014699999999999967;0.9790319586160724;-2.880242156463956
0.014799999999999966;0.9787448981916755;-2.8995120719792333
0.014899999999999965;0.9784559104209546;-2.9187748410574392
0.014999999999999965;0.978164996015494;-2.9380304024642663
0.015099999999999964;0.9778721556929987;-2.957278694912334
0.015199999999999964;0.9775773901772997;-2.976519657063799
0.015299999999999963;0.9772807001983594;-2.9957532275329193
0.015399999999999962;0.9769820864922764;-3.0149793448885664
0.015499999999999962;0.97668154980129;-3.03419794765669
0.015599999999999961;0.9763790908737848;-3.0534089743227315
0.01569999999999996;0.9760747104642953;-3.072612363333991
0.01579999999999996;0.9757684093335087;-3.091808053101942
0.01589999999999996;0.9754601882482699;-3.1109959820044986
0.01599999999999996;0.9751500479815838;-3.130176088388237
0.016099999999999958;0.9748379893126194;-3.149348310570563
0.016199999999999957;0.9745240130267127;-3.1685125868418376
0.016299999999999957;0.9742081199153689;-3.1876688554674515
0.016399999999999956;0.9738903107762658;-3.206817054689854
0.016499999999999956;0.9735705864132554;-3.225957122730535
0.016599999999999955;0.973248947636367;-3.2450889977919593
0.016699999999999954;0.9729253952618085;-3.2642126180594597
0.016799999999999954;0.9725999301119683;-3.283327921703081
0.016899999999999953;0.9722725530154173;-3.3024348468793785
0.016999999999999953;0.9719432648069098;-3.3215333317331783
0.017099999999999952;0.9716120663273854;-3.340623314399289
0.01719999999999995;0.9712789584239694;-3.3597047330041727
0.01729999999999995;0.9709439419499741;-3.3787775256675716
0.01739999999999995;0.9706070177648999;-3.397841630504099
0.01749999999999995;0.9702681867344349;-3.4168969856247813
0.01759999999999995;0.9699274497304563;-3.435943529138568
0.01769999999999995;0.9695848076310302;-3.454981199153795
0.017799999999999948;0.9692402613204119;-3.4740099337796138
0.017899999999999947;0.9688938116890458;-3.493029671127381
0.017999999999999947;0.9685454596335652;-3.512040349312012
0.018099999999999946;0.9681952060567923;-3.531041906453294
0.018199999999999945;0.9678430518677376;-3.550034280677168
0.018299999999999945;0.9674889979815989;-3.569017410116971
0.018399999999999944;0.9671330453197616;-3.5879912329146486
0.018499999999999944;0.966775194809797;-3.606955687221928
0.018599999999999943;0.9664154473854617;-3.625910711201463
0.018699999999999942;0.9660538039866968;-3.644856243027944
0.018799999999999942;0.9656902655596264;-3.6637922208891767
0.01889999999999994;0.9653248330565567;-3.6827185829871296
0.01899999999999994;0.9649575074359741;-3.7016352675389537
0.01909999999999994;0.9645882896625442;-3.720542212777968
0.01919999999999994;0.96421718070711;-3.739439356954621
0.01929999999999994;0.9638441815466906;-3.7583266383374205
0.019399999999999938;0.9634692931644788;-3.7772039952138394
0.019499999999999938;0.96309251654984;-3.796071365891192
0.019599999999999937;0.9627138526983093;-3.814928688697484
0.019699999999999936;0.9623333026115907;-3.833775901982241
0.019799999999999936;0.9619508672975539;-3.8526129441173085
0.019899999999999935;0.9615665477702325;-3.871439753497628
0.019999999999999934;0.9611803450498222;-3.890256268541993
0.020099999999999934;0.9607922601626775;-3.9090624276937804
0.020199999999999933;0.9604022941413102;-3.9278581694216577
0.020299999999999933;0.9600104480243862;-3.9466434322202733
0.020399999999999932;0.9596167228567234;-3.965418154610922
0.02049999999999993;0.9592211196892889;-3.984182275142193
0.02059999999999993;0.9588236395791964;-4.002935732390597
0.02069999999999993;0.9584242835897031;-4.021678464961175
0.02079999999999993;0.9580230527902074;-4.040410411488088
0.02089999999999993;0.9576199482562455;-4.059131510635191
0.02099999999999993;0.9572149710694889;-4.0778417010965855
0.021099999999999928;0.9568081223177413;-4.0965409215971595
0.021199999999999927;0.9563994030949351;-4.115229110893112
0.021299999999999927;0.9559888145011288;-4.133906207772455
0.021399999999999926;0.9555763576425038;-4.1525721510555105
0.021499999999999925;0.955162033631361;-4.171226879595385
0.021599999999999925;0.9547458435861176;-4.189870332278431
0.021699999999999924;0.9543277886313039;-4.208502448024703
0.021799999999999924;0.9539078698975598;-4.227123165788384
0.021899999999999923;0.9534860885216317;-4.24573242455822
0.021999999999999922;0.9530624456463688;-4.264330163357926
0.022099999999999922;0.9526369424207193;-4.282916321246587
0.02219999999999992;0.9522095799997277;-4.301490837319046
0.02229999999999992;0.9517803595445306;-4.320053650706286
0.02239999999999992;0.9513492822223534;-4.338604700575791
0.02249999999999992;0.9509163492065066;-4.357143926131912
0.02259999999999992;0.9504815616763821;-4.375671266616206
0.022699999999999918;0.9500449208174494;-4.394186661307781
0.022799999999999918;0.949606427821252;-4.412690049523624
0.022899999999999917;0.9491660838854038;-4.431181370618921
0.022999999999999916;0.9487238902135848;-4.449660563987374
0.023099999999999916;0.9482798480155378;-4.468127569061501
0.023199999999999915;0.947833958507064;-4.486582325312939
0.023299999999999915;0.9473862229100196;-4.505024772252729
0.023399999999999914;0.9469366424523118;-4.523454849431608
0.023499999999999913;0.9464852183678945;-4.541872496440278
0.023599999999999913;0.9460319518967646;-4.560277652909683
0.023699999999999912;0.9455768442849578;-4.57867025851127
0.02379999999999991;0.945119896784545;-4.597050252957252
0.02389999999999991;0.9446611106536276;-4.615417576000859
0.02399999999999991;0.9442004871563338;-4.63377216743659
0.02409999999999991;0.9437380275628144;-4.652113967100455
0.02419999999999991;0.9432737331492389;-4.670442914870213
0.02429999999999991;0.9428076051977908;-4.68875895066561
0.024399999999999908;0.942339644996664;-4.707062014448609
0.024499999999999907;0.9418698538400582;-4.725352046223614
0.024599999999999907;0.9413982330281746;-4.743628986037697
0.024699999999999906;0.9409247838672122;-4.761892773980813
0.024799999999999905;0.9404495076693629;-4.7801433501860195
0.024899999999999905;0.9399724057528074;-4.798380654829688
0.024999999999999904;0.9394934794417111;-4.816604628131715
0.025099999999999904;0.9390127300662195;-4.834815210355726
0.025199999999999903;0.9385301589624541;-4.85301234180928
0.025299999999999902;0.9380457674725075;-4.871195962844076
0.025399999999999902;0.9375595569444396;-4.889366013856147
0.0254999999999999;0.9370715287322728;-4.907522435286063
0.0255999999999999;0.9365816841959879;-4.925665167619118
0.0256999999999999;0.9360900247015189;-4.9437941513855295
0.0257999999999999;0.9355965516207496;-4.961909327160629
0.0258999999999999;0.9351012663315083;-4.98001063556505
0.025999999999999898;0.9346041702175633;-4.998098017264919
0.026099999999999898;0.9341052646686188;-5.016171412972038
0.026199999999999897;0.93360455108031;-5.034230763444074
0.026299999999999896;0.933102030854199;-5.052276009484742
0.026399999999999896;0.9325977053977691;-5.070307091943986
0.026499999999999895;0.9320915761244215;-5.0883239517181655
0.026599999999999895;0.9315836444534699;-5.106326529750232
0.026699999999999894;0.931073911810136;-5.1243147670299125
0.026799999999999893;0.930562379625545;-5.142288604593888
0.026899999999999893;0.9300490493367206;-5.160247983525971
0.026999999999999892;0.9295339223865807;-5.178192844957287
0.02709999999999989;0.9290170002239323;-5.196123130066451
0.02719999999999989;0.9284982843034668;-5.214038780079741
0.02729999999999989;0.9279777760857556;-5.23193973627128
0.02739999999999989;0.927455477037245;-5.249825939963209
0.02749999999999989;0.9269313886302514;-5.267697332525866
0.02759999999999989;0.9264055123429566;-5.285553855377959
0.027699999999999888;0.9258778496594032;-5.303395449986744
0.027799999999999887;0.9253484020694892;-5.3212220578682
0.027899999999999887;0.9248171710689636;-5.339033620587203
0.027999999999999886;0.9242841581594211;-5.356830079757703
0.028099999999999885;0.9237493648482978;-5.374611377042901
0.028199999999999885;0.9232127926488658;-5.392377454155419
0.028299999999999884;0.9226744430802284;-5.410128252857482
0.028399999999999884;0.9221343176673151;-5.427863714961088
0.028499999999999883;0.9215924179408769;-5.445583782328187
0.028599999999999882;0.9210487454374808;-5.4632883968708565
0.028699999999999882;0.9205033016995054;-5.480977500551475
0.02879999999999988;0.9199560882751355;-5.498651035382902
0.02889999999999988;0.9194071067183569;-5.516308943428649
0.02899999999999988;0.9188563585889519;-5.533951166803064
0.02909999999999988;0.9183038454524937;-5.551577647671499
0.02919999999999988;0.9177495688803415;-5.569188328250492
0.029299999999999878;0.9171935304496357;-5.586783150807946
0.029399999999999878;0.9166357317432922;-5.6043620576633035
0.029499999999999877;0.9160761743499976;-5.621924991187725
0.029599999999999876;0.9155148598642039;-5.639471893804266
0.029699999999999876;0.9149517898861237;-5.657002707988059
0.029799999999999875;0.9143869660217243;-5.67451737626649
0.029899999999999875;0.9138203898827231;-5.692015841219376
0.029999999999999874;0.913252063086582;-5.70949804547915
0.030099999999999873;0.9126819872565024;-5.726963931731034
0.030199999999999873;0.9121101640214199;-5.744413442713223
0.030299999999999872;0.9115365950159986;-5.761846521217065
0.03039999999999987;0.9109612818806265;-5.779263110087243
0.03049999999999987;0.9103842262614097;-5.796663152221951
0.03059999999999987;0.909805429810167;-5.814046590573085
0.03069999999999987;0.9092248941844249;-5.831413368146415
0.03079999999999987;0.9086426210474118;-5.848763428001773
0.03089999999999987;0.9080586120680529;-5.866096713253233
0.030999999999999868;0.907472868920965;-5.883413167069297
0.031099999999999867;0.9068853932864502;-5.900712732673075
0.031199999999999867;0.9062961868504916;-5.917995353343433
0.03129999999999987;0.9057052513047468;-5.93526097241891
0.03139999999999987;0.9051125883465426;-5.95250953330426
0.031499999999999875;0.9045181996788687;-5.969740979476581
0.03159999999999988;0.9039220870103708;-5.986955254484819
0.03169999999999988;0.9033242520553437;-6.004152301947787
0.031799999999999884;0.9027246965337238;-6.021332065552343
0.03189999999999989;0.9021234221710814;-6.038494489052709
0.03199999999999989;0.9015204306986154;-6.055639516270407
0.03209999999999989;0.9009157238531457;-6.072767091093866
0.032199999999999895;0.9003093033771065;-6.089877157477497
0.0322999999999999;0.8997011710185403;-6.106969659440737
0.0323999999999999;0.8990913285310905;-6.124044541067353
0.032499999999999904;0.8984797776739956;-6.141101746504986
0.03259999999999991;0.8978665202120821;-6.158141219964688
0.03269999999999991;0.8972515579157593;-6.175162905720405
0.03279999999999991;0.8966348925610115;-6.192166748108451
0.032899999999999915;0.896016525929393;-6.209152691527066
0.03299999999999992;0.895396459808021;-6.226120680436032
0.03309999999999992;0.8947746959895699;-6.243070659356331
0.033199999999999924;0.8941512362722651;-6.260002572869801
0.03329999999999993;0.8935260824598769;-6.276916365618868
0.03339999999999993;0.8928992363617143;-6.293811982306261
0.03349999999999993;0.8922706997926194;-6.31068936769477
