time;position;velocity
0;0;0
0.001;0.0;0.0
0.002;0.0;0.0
0.003;0.0;0.025219182144725592
0.004;2.5219182144725626e-05;0.08341458082274378
0.005;0.00010863376296746944;0.17293117573306274
0.006;0.00028156493870053217;0.2879683140751603
0.007;0.0005695332527756924;0.42170375298884205
0.008;0.000991237005764534;0.5679172589064274
0.009000000000000001;0.0015591542646709632;0.7216534834721091
0.010000000000000002;0.0022808077481430745;0.8793298563499451
0.011000000000000003;0.0031601376044930224;1.0385678043385593
0.012000000000000004;0.004198705408831585;1.1979215876086873
0.013000000000000005;0.0053966269964402765;1.3566025821697223
0.014000000000000005;0.006753229578610005;1.5142454694819925
0.015000000000000006;0.008267475048092002;1.6707313603817948
0.016000000000000007;0.0099382064084738;1.8260657858124756
0.017000000000000008;0.011764272194286279;1.9803018255311136
0.01800000000000001;0.013744574019817395;2.1334966181110477
0.01900000000000001;0.015878070637928444;2.285690425126144
0.02000000000000001;0.01816376106305459;2.436899586062269
0.02100000000000001;0.02060066064911686;2.587117095542082
0.022000000000000013;0.02318777774465895;2.736316655166087
0.023000000000000013;0.025924094399825043;2.8844577060665553
0.024000000000000014;0.028808552105891602;3.0314901196723842
0.025000000000000015;0.03184004222556398;3.17735798299937
0.026000000000000016;0.03501740020856335;3.3220023595356905
0.027000000000000017;0.03833940256809904;3.465363133701136
0.028000000000000018;0.041804765701800195;3.6073801356897617
0.02900000000000002;0.045412145837489974;3.7479937536011843
0.03000000000000002;0.04916013959109119;3.8871452114412772
0.03100000000000002;0.053047284802532464;4.024776649811199
0.03200000000000002;0.05707206145234366;4.160831104729458
0.03300000000000002;0.06123289255707309;4.29525244544619
0.03400000000000002;0.06552814500251927;4.427985306220192
0.035000000000000024;0.06995613030873943;4.558975029340745
0.036000000000000025;0.07451510533808019;4.6881676256460505
0.037000000000000026;0.07920327296372623;4.815509752634049
0.03800000000000003;0.08401878271636024;4.940948707367147
0.03900000000000003;0.08895973142372737;5.064432430465049
0.04000000000000003;0.09402416385419239;5.185909517646558
0.04100000000000003;0.09921007337183899;5.305329235923103
0.04200000000000003;0.10451540260776203;5.422641542308477
0.04300000000000003;0.10993804415007045;5.537797103605364
0.04400000000000003;0.11547584125367578;5.650747316383345
0.04500000000000003;0.12112658857005912;5.761444326662594
0.046000000000000034;0.12688803289672165;5.869841049080644
0.047000000000000035;0.1327578739458023;5.975891185477292
0.048000000000000036;0.13873376513127955;6.079549242915678
0.04900000000000004;0.14481331437419526;6.1807705511925555
0.05000000000000004;0.15099408492538785;6.279511279897664
0.05100000000000004;0.15727359620528553;6.3757284550747855
0.05200000000000004;0.16364932466036028;6.4693799755243395
0.05300000000000004;0.1701187046358846;6.5604246287740615
0.05400000000000004;0.17667912926465865;6.648822106733012
0.05500000000000004;0.18332795137139168;6.734533021035491
0.05600000000000004;0.19006248439242712;6.8175189180754625
0.057000000000000044;0.19688000331050257;6.897742293728393
0.058000000000000045;0.20377774560423095;6.975166607755203
0.059000000000000045;0.21075291221198617;7.049756297882221
0.060000000000000046;0.2178026685098684;7.121476793550574
0.06100000000000005;0.22492414530341898;7.190294529328749
0.06200000000000005;0.2321144398327477;7.256176957982201
0.06300000000000004;0.23937061679072985;7.31909256319436
0.06400000000000004;0.24668970935392423;7.379010871933666
0.06500000000000004;0.25406872022585786;7.435902466461597
0.06600000000000004;0.26150462269231944;7.489738995976908
0.06700000000000005;0.26899436168829627;7.540493187891511
0.06800000000000005;0.27653485487618773;7.588138858733606
0.06900000000000005;0.28412299373492145;7.632650924673847
0.07000000000000005;0.2917556446595953;7.674005411670447
0.07100000000000005;0.2994296500712657;7.712179465229276
0.07200000000000005;0.307141829536495;7.7471513597751365
0.07300000000000005;0.31488898089627015;7.7789005076305235
0.07400000000000005;0.32266788140390074;7.807407467598314
0.07500000000000005;0.330475288871499;7.832653953144964
0.07600000000000005;0.33830794282464394;7.854622840180917
0.07700000000000005;0.34616256566482495;7.873298174435088
0.07800000000000006;0.35403586383926006;7.888665178420402
0.07900000000000006;0.3619245290176805;7.900710257987514
0.08000000000000006;0.36982523927566807;7.909421008463998
0.08100000000000006;0.3777346602841321;7.914786220376409
0.08200000000000006;0.38564944650450855;7.91679588475279
0.08300000000000006;0.3935662423892613;7.915441198003331
0.08400000000000006;0.40148168358726466;7.910714566377043
0.08500000000000006;0.4093923981536418;7.90260960999244
0.08600000000000006;0.41729500776363415;7.891121166440401
0.08700000000000006;0.4251861289300745;7.876245293957505
0.08800000000000006;0.433062374224032;7.8579792741683026
0.08900000000000007;0.44092035349820036;7.836321614395129
0.09000000000000007;0.4487566751125956;7.811272049534219
0.09100000000000007;0.45656794716212984;7.78283154349704
0.09200000000000007;0.4643507787056269;7.751002290215898
0.09300000000000007;0.47210178099584277;7.715787714213056
0.09400000000000007;0.47981756871005576;7.677192470732713
0.09500000000000007;0.4874947611807883;7.635222445435399
0.09600000000000007;0.4951299836262236;7.589884753654449
0.09700000000000007;0.5027198683798779;7.5411877392144016
0.09800000000000007;0.5102610561190923;7.4891409728113185
0.09900000000000007;0.5177501970919036;7.43375524995517
0.10000000000000007;0.5251839523418589;7.375042588474588
0.10100000000000008;0.5325589949303335;7.313016225584457
0.10200000000000008;0.5398720111559181;7.247690614516951
0.10300000000000008;0.547119701770435;7.179081420716782
0.10400000000000008;0.5542987831911518;7.107205517601609
0.10500000000000008;0.5614059887087534;7.0320809818886545
0.10600000000000008;0.568438069690642;6.9537270884888
0.10700000000000008;0.5753917967791309;6.87216430496953
0.10800000000000008;0.5822639610841005;6.787414285588284
0.10900000000000008;0.5890513753696889;6.699499864897894
0.11000000000000008;0.595750875234587;6.608445050925994
0.11100000000000008;0.6023593202855131;6.514275017930377
0.11200000000000009;0.6088735953034432;6.417016098732478
0.11300000000000009;0.6152906114021758;6.31669577663127
0.11400000000000009;0.621607307178807;6.213342676900081
0.11500000000000009;0.6278206498557073;6.106986557868876
0.11600000000000009;0.6339276364135762;5.997658301594832
0.11700000000000009;0.639925294715171;5.885389904124069
0.11800000000000009;0.6458106846192951;5.770214465347617
0.11900000000000009;0.6515808990846429;5.652166178454819
0.12000000000000009;0.6572330652630977;5.531280318987527
0.1210000000000001;0.6627643455820851;5.407593233498565
0.1220000000000001;0.6681719388155838;5.281142327818131
0.1230000000000001;0.673453081143402;5.1519660549319
0.1240000000000001;0.6786050471983338;5.020103902474735
0.12500000000000008;0.6836251511008085;4.885596379844125
0.12600000000000008;0.6885107474806527;4.748485004937475
0.12700000000000009;0.6932592324855902;4.6088122905176725
0.12800000000000009;0.6978680447761078;4.466621730211331
0.1290000000000001;0.7023346665063189;4.321957784144368
0.1300000000000001;0.7066566242904635;4.1748658642196474
0.1310000000000001;0.7108314901546834;4.025392319041562
0.1320000000000001;0.714856882473725;3.8735844184925567
0.1330000000000001;0.7187304668922176;3.7194903379667457
0.1340000000000001;0.7224499572301843;3.5631591422658295
0.1350000000000001;0.7260131163724503;3.404640769162789
0.1360000000000001;0.7294177571416128;3.2439860126387945
0.1370000000000001;0.7326617431542516;3.0812465057989455
0.1380000000000001;0.7357429896600506;2.9164747034726677
0.1390000000000001;0.7386594643635233;2.749723864504568
0.1400000000000001;0.7414091882280279;2.581048033741733
0.1410000000000001;0.7439902362617696;2.4105020237236285
0.1420000000000001;0.7464007382854934;2.238141396080696
0.1430000000000001;0.7486388796815739;2.064022442648095
0.1440000000000001;0.750702902124222;1.8882021663008952
0.1450000000000001;0.7525911042905229;1.7107382615173095
0.1460000000000001;0.7543018425520401;1.531689094676626
0.1470000000000001;0.7558335316467166;1.3511136840984685
0.1480000000000001;0.7571846453308151;1.1690716798303296
0.1490000000000001;0.7583537170106455;0.9856233431902228
0.1500000000000001;0.7593393403538358;0.8008295260715155
0.1510000000000001;0.7601401698799072;0.6147516500170308
0.1520000000000001;0.7607549215299243;0.4274516850696306
0.1530000000000001;0.7611823732149939;0.23899212840655712
0.1540000000000001;0.7614213653434004;0.04943598276490649
0.1550000000000001;0.7614708013261652;-0.1411532653343174
0.1560000000000001;0.7613296480608308;-0.3327116675560393
0.1570000000000001;0.7609969363932748;-0.5251748359072339
0.1580000000000001;0.7604717615573675;-0.7184779650716584
0.1590000000000001;0.7597532835922958;-0.9125558549154189
0.16000000000000011;0.7588407277373804;-1.1073429331556264
0.16100000000000012;0.7577333848042249;-1.3027732781841614
0.16200000000000012;0.7564306115260409;-1.4987806420386731
0.16300000000000012;0.7549318308840021;-1.6952984735127834
0.16400000000000012;0.7532365324104894;-1.8922599413974233
0.16500000000000012;0.7513442724690921;-2.0895979578452297
0.16600000000000012;0.7492546745112467;-2.287245201849762
0.16700000000000012;0.746967429309397;-2.485134142831378
0.16800000000000012;0.7444822951665656;-2.683197064321529
0.16900000000000012;0.7417990981022441;-2.8813660877370424
0.17000000000000012;0.7389177320145071;-3.079573196236224
0.17100000000000012;0.7358381588182707;-3.277750258648251
0.17200000000000013;0.7325604085596226;-3.4758290534675065
0.17300000000000013;0.729084579506155;-3.6737412929044493
0.17400000000000013;0.7254108382132504;-3.871418646984391
0.17500000000000013;0.721539419566266;-4.0687927676858715
0.17600000000000013;0.7174706267985802;-4.265795313109968
0.17700000000000013;0.7132048314854702;-4.462357971672078
0.17800000000000013;0.7087424735137982;-4.658412486307534
0.17900000000000013;0.7040840610274908;-4.853890678682583
0.18000000000000013;0.6992301703488082;-5.048724473402074
0.18100000000000013;0.6941814458754061;-5.242845922205265
0.18200000000000013;0.6889385999532007;-5.436187228141202
0.18300000000000013;0.6835024127250595;-5.628680769715024
0.18400000000000014;0.6778737319553444;-5.820259124996673
0.18500000000000014;0.6720534728303478;-6.010855095683309
0.18600000000000014;0.6660426177346644;-6.200401731106993
0.18700000000000014;0.6598422160035574;-6.388832352178931
0.18800000000000014;0.6534533836513786;-6.576080575261809
0.18900000000000014;0.6468773030761169;-6.7620803359616914
0.19000000000000014;0.6401152227401553;-6.946765912830902
0.19100000000000014;0.6331684568273243;-7.13007195097345
0.19200000000000014;0.6260383848763509;-7.311933485544502
0.19300000000000014;0.6187264513908065;-7.492285965135491
0.19400000000000014;0.6112341654256711;-7.671065275036432
0.19500000000000015;0.6035631001506347;-7.848207760367105
0.19600000000000015;0.5957148923902675;-8.023650249068725
0.19700000000000015;0.5876912421411987;-8.197330074747859
0.19800000000000015;0.5794939120664507;-8.369185099364339
0.19900000000000015;0.5711247269670864;-8.539153735754944
0.20000000000000015;0.5625855732313315;-8.70717496998472
0.20100000000000015;0.5538783982613469;-8.873188383517862
0.20200000000000015;0.5450052098778291;-9.03713417520009
0.20300000000000015;0.5359680757026289;-9.198953183044562
0.20400000000000015;0.5267691225195843;-9.358586905813384
0.20500000000000015;0.517410535613771;-9.515977524386907
0.20600000000000016;0.5078945580893843;-9.671067922912993
0.20700000000000016;0.4982234901664714;-9.823801709728537
0.20800000000000016;0.48839968845674303;-9.974123238045609
0.20900000000000016;0.47842556521869745;-10.121977626394674
0.21000000000000016;0.468303587592303;-10.267310778817366
0.21100000000000016;0.4580362768134855;-10.410069404801474
0.21200000000000016;0.4476262074086841;-10.550201038950703
0.21300000000000016;0.4370760063697333;-10.687654060382142
0.21400000000000016;0.4263883523093514;-10.82237771184415
0.21500000000000016;0.4155659745975068;-10.954322118547712
0.21600000000000016;0.40461165247895925;-11.083438306704204
0.21700000000000016;0.3935282141722554;-11.20967822176286
0.21800000000000017;0.38231853595049275;-11.33299474634102
0.21900000000000017;0.3709855412041515;-11.4533417178406
0.22000000000000017;0.35953219948631127;-11.57067394574422
0.22100000000000017;0.34796152554056725;-11.684947228584548
0.22200000000000017;0.33627657831198293;-11.796118370580487
0.22300000000000017;0.3244804599414024;-11.904145197934023
0.22400000000000017;0.3125763147434684;-12.008986574781623
0.22500000000000017;0.3005673281686866;-12.110602418794182
0.22600000000000017;0.2884567257498925;-12.208953716419638
0.22700000000000017;0.2762477720334725;-12.304002537762544
0.22800000000000017;0.2639437694957097;-12.3957120510949
0.22900000000000018;0.25154805744461434;-12.484046536992826
0.23000000000000018;0.23906401090762142;-12.568971402093625
0.23100000000000018;0.226495039505528;-12.65045319246805
0.23200000000000018;0.21384458631305983;-12.728459606602625
0.23300000000000018;0.201116126706457;-12.80295950798705
0.23400000000000018;0.18831316719847024;-12.873922937301838
0.23500000000000018;0.1754392442611687;-12.941321124201504
0.23600000000000018;0.1624979231369676;-13.005126498688695
0.23700000000000018;0.14949279663827866;-13.065312702074854
0.23800000000000018;0.13642748393620396;-13.121854597523145
0.23900000000000018;0.12330562933868108;-13.174728280169466
0.24000000000000019;0.11013090105851203;-13.22391108681758
0.2410000000000002;0.09690698997169456;-13.269381605204496
0.2420000000000002;0.08363760836649012;-13.311119682832414
0.2430000000000002;0.07032648868365772;-13.349106435363675
0.2440000000000002;0.056977382248293934;-13.383324254575315
0.2450000000000002;0.0435940579937188;-13.413756815869977
0.2460000000000002;0.03018030117784862;-13.440389085340115
0.2470000000000002;0.016739912092508753;-13.463207326382491
0.2480000000000002;0.003276704766126135;-13.482199105860277
0.2490000000000002;-0.010205494339733848;-13.497353299810028
0.25000000000000017;-0.023702847639543466;-13.508660098691184
0.25100000000000017;-0.03721150773823453;-13.516111012175694
0.25200000000000017;-0.05072761875041001;-13.519698873475676
0.25300000000000017;-0.06424731762388503;-13.51941784320712
0.25400000000000017;-0.07776673546709185;-13.51526341278782
0.25500000000000017;-0.0912819988798803;-13.50723240736786
0.25600000000000017;-0.10478923128724821;-13.495322988291191
0.2570000000000002;-0.1182845542755391;-13.479534655086965
0.2580000000000002;-0.13176408893062694;-13.459868246989446
0.2590000000000002;-0.14522395717761702;-13.436325943985535
0.2600000000000002;-0.15866028312160269;-13.40891126738906
0.2610000000000002;-0.17206919438899235;-13.37762907994117
0.2620000000000002;-0.18544682346893432;-13.34248558543637
0.2630000000000002;-0.19878930905437037;-13.303488327873822
0.2640000000000002;-0.21209279738224407;-13.260646190133802
0.2650000000000002;-0.22535344357237824;-13.21396939217929
0.2660000000000002;-0.23856741296455744;-13.163469488782905
0.2670000000000002;-0.2517308824533404;-13.109159366779481
0.2680000000000002;-0.2648400418201195;-13.051053241844885
0.2690000000000002;-0.2778910950619651;-12.98916665480164
0.2700000000000002;-0.29088026171676673;-12.923516467452362
0.2710000000000002;-0.3038037781842189;-12.854120857941872
0.2720000000000002;-0.31665789904216185;-12.780999315649286
0.2730000000000002;-0.32943889835781004;-12.70417263561143
0.2740000000000002;-0.34214307099342184;-12.623662912478984
0.2750000000000002;-0.3547667339059004;-12.539493534007272
0.2760000000000002;-0.36730622743990865;-12.451689174083304
0.2770000000000002;-0.3797579166139925;-12.360275785291321
0.2780000000000002;-0.3921181923992836;-12.265280591018865
0.2790000000000002;-0.4043834729903022;-12.166732077105799
0.2800000000000002;-0.4165502050674074;-12.064659983038837
0.2810000000000002;-0.42861486505044677;-11.959095292694174
0.2820000000000002;-0.44057396034314034;-11.85007022463118
0.2830000000000002;-0.45242403056777186;-11.737618221939998
0.2840000000000002;-0.46416164878971233;-11.621773941646438
0.2850000000000002;-0.4757834227313593;-11.502573243677281
0.2860000000000002;-0.4872859959750367;-11.38005317938963
0.2870000000000002;-0.49866604915442575;-11.25425197966788
0.2880000000000002;-0.5099203011340944;-11.125209042592108
0.2890000000000002;-0.5210455101766865;-10.992964920681974
0.2900000000000002;-0.5320384750973687;-10.857561307719982
0.2910000000000002;-0.5428960364050888;-10.719041025158642
0.2920000000000002;-0.5536150774302475;-10.577448008115788
0.2930000000000002;-0.5641925254383636;-10.43282729096269
0.2940000000000002;-0.5746253527293264;-10.285224992509614
0.2950000000000002;-0.5849105777218355;-10.134688300793785
0.2960000000000002;-0.5950452660226291;-9.981265457474658
0.2970000000000002;-0.605026531480104;-9.825005741841746
0.2980000000000002;-0.614851537221946;-9.665959454440275
0.2990000000000002;-0.6245174966763857;-9.504177900320043
0.3000000000000002;-0.6340216745767052;-9.339713371913097
0.3010000000000002;-0.6433613879486193;-9.17261913154601
0.3020000000000002;-0.6525340070801652;-9.002949393592576
0.3030000000000002;-0.6615369564737578;-8.83075930627269
0.3040000000000002;-0.6703677157800304;-8.656104933103917
0.3050000000000002;-0.6790238207131344;-8.479043234011675
0.3060000000000002;-0.6875028639471461;-8.299632046104547
0.3070000000000002;-0.6958024959932504;-8.117930064121143
0.3080000000000002;-0.7039204260573715;-7.9339968205551985
0.3090000000000002;-0.7118544228779271;-7.747892665465571
0.3100000000000002;-0.7196023155433923;-7.559678745978119
0.3110000000000002;-0.7271619942893707;-7.36941698548616
0.3120000000000002;-0.7345314112748569;-7.177170062557005
0.3130000000000002;-0.7417085813374139;-6.983001389551346
0.3140000000000002;-0.7486915827269649;-6.786975090963084
0.3150000000000002;-0.7554785578179279;-6.589155981486859
0.3160000000000002;-0.7620677137994145;-6.389609543820938
0.3170000000000002;-0.7684573233432356;-6.188401906212837
0.3180000000000002;-0.7746457252494483;-5.985599819755714
0.31900000000000023;-0.7806313250692037;-5.781270635443002
0.32000000000000023;-0.7864125957046466;-5.575482280989439
0.32100000000000023;-0.791988077985636;-5.368303237426403
0.32200000000000023;-0.7973563812230623;-5.15980251547958
0.32300000000000023;-0.8025161837385419;-4.9500496317371985
0.32400000000000023;-0.8074662333702791;-4.7391145846170515
0.32500000000000023;-0.8122053479548962;-4.527067830140633
0.32600000000000023;-0.8167324157850367;-4.313980257522804
0.32700000000000023;-0.8210463960425596;-4.099923164585436
0.32800000000000024;-0.825146319207145;-3.8849682330036086
0.32900000000000024;-0.8290312874401486;-3.6691875033929633
0.33000000000000024;-0.8327004749435415;-3.452653350246889
0.33100000000000024;-0.8361531282937885;-3.2354384567322745
0.33200000000000024;-0.8393885667505209;-3.017615789352673
0.33300000000000024;-0.8424061825398736;-2.79925857248762
0.33400000000000024;-0.8452054411123615;-2.580440262817152
0.33500000000000024;-0.8477858813751785;-2.361234523640452
0.33600000000000024;-0.8501471158988191;-2.1417151990974017
0.33700000000000024;-0.8522888310979163;-1.9219562883025534
0.33800000000000024;-0.8542107873862189;-1.7020319194000215
0.33900000000000025;-0.8559128193056189;-1.4820163235490078
