time;position;velocity
0;0;0
0.0001;0.0;0.0
0.0002;0.0;0.0
0.00030000000000000003;0.0;2.5219182144725603e-05
0.0004;2.521918214472561e-09;9.913096206458618e-05
0.0005;1.2435014420931183e-08;0.00024354346198004578
0.0006000000000000001;3.678936061893577e-08;0.0004786771983606877
0.0007000000000000001;8.465708045500457e-08;0.0008232400606112546
0.0008000000000000001;1.6698108651613005e-07;0.0012944996333044616
0.0009000000000000002;2.9643104984657625e-07;0.0019083529222748768
0.0010000000000000002;4.872663420740637e-07;0.002679393553497216
0.0011000000000000003;7.552056974237856e-07;0.00362097650834986
0.0012000000000000003;1.1173033482587717e-06;0.0047452804591106975
0.0013000000000000004;1.591831394169841e-06;0.0060633677674904315
0.0014000000000000004;2.198168170918884e-06;0.007585242208524532
0.0015000000000000005;2.9566923917713383e-06;0.009319904481458289
0.0016000000000000005;3.888682839917167e-06;0.011275405568644543
0.0017000000000000006;5.016223396781623e-06;0.013458898002778014
0.0018000000000000006;6.362113197059422e-06;0.015876685102043764
0.0019000000000000006;7.949781707263801e-06;0.0185342682319704
0.0020000000000000005;9.803208530460837e-06;0.021436392151953084
0.0021000000000000003;1.194684774565615e-05;0.02458708850355081
0.0022;1.4405556596011223e-05;0.027989717496768107
0.0023;1.7204528345688035e-05;0.031647007849608624
0.0024;2.036922913064889e-05;0.035561095035238216
0.0024999999999999996;2.39253386341727e-05;0.03973355789012421
0.0025999999999999994;2.7898694423185116e-05;0.04416545363552525
0.0026999999999999993;3.2315239786737624e-05;0.048857351363698925
0.002799999999999999;3.72009749231075e-05;0.053809364039172386
0.002899999999999999;4.258191132702471e-05;0.05902117906438775
0.0029999999999999988;4.8484029233463454e-05;0.06449208745799258
0.0030999999999999986;5.4933237979262684e-05;0.07022101169299673
0.0031999999999999984;6.195533914856231e-05;0.07620653224096398
0.0032999999999999982;6.957599237265868e-05;0.08244691286735117
0.003399999999999998;7.782068365939376e-05;0.08894012472205107
0.003499999999999998;8.671469613159881e-05;0.09568386926814046
0.0035999999999999977;9.628308305841281e-05;0.10267560009078192
0.0036999999999999976;0.00010655064306749096;0.10991254362717957
0.0037999999999999974;0.00011754189743020886;0.11739171885744647
0.0038999999999999972;0.00012928106931595345;0.12510995599520525
0.0039999999999999975;0.00014179206491547405;0.13306391421571573
0.004099999999999998;0.00015509845633704565;0.14125009845830444
0.004199999999999998;0.00016922346618287627;0.14966487533886333
0.004299999999999998;0.00018418995371676276;0.15830448820718512
0.0043999999999999985;0.00020002040253748127;0.16716507138292108
0.004499999999999999;0.00021673690967577344;0.17624266360296992
0.004599999999999999;0.00023436117603607026;0.18553322071214987
0.004699999999999999;0.0002529144981072852;0.19503262762806034
0.0048;0.0002724177608700913;0.2047367096101064
0.0049;0.00029289143183110184;0.21464124286174724
0.005;0.00031435555611727657;0.22474196449412637
0.0051;0.0003368297525666894;0.23503458187835785
0.005200000000000001;0.0003603332107545251;0.24551478141287592
0.005300000000000001;0.0003848846888958127;0.2561782367314026
0.005400000000000001;0.00041050251256895325;0.2670206163762527
0.005500000000000001;0.00043720457420657856;0.27803759096087877
0.005600000000000002;0.0004650083333026663;0.28922483984475894
0.005700000000000002;0.0004939308172871423;0.30057805734294346
0.005800000000000002;0.0005239886230214369;0.31209295849181323
0.0059000000000000025;0.0005551979188706179;0.323765284391854
0.006000000000000003;0.0005875744473098035;0.3355908071475179
0.006100000000000003;0.0006211335280245553;0.3475653344235295
0.006200000000000003;0.0006558900614669087;0.3596847136362996
0.0063000000000000035;0.0006918585328305386;0.3719448357984274
0.006400000000000004;0.0007290530164103817;0.3843416390336136
0.006500000000000004;0.0007674871803137433;0.39687111177865664
0.006600000000000004;0.0008071742914916089;0.40952929568858265
0.0067000000000000046;0.0008481272210604675;0.42231228826034434
0.006800000000000005;0.0008903584498865021;0.43521624518992874
0.006900000000000005;0.0009338800744054952;0.44823738247714184
0.007000000000000005;0.0009787038126532095;0.46137197829176885
0.007100000000000006;0.001024841010482387;0.4746163746142687
0.007200000000000006;0.001072302647943814;0.4879669786636294
0.007300000000000006;0.0011210993458101771;0.5014202641244984
0.007400000000000006;0.001171241372222627;0.5149727721852004
0.007500000000000007;0.0012227386494411475;0.5286211123977766
0.007600000000000007;0.0012756007606809254;0.5423619633707056
0.007700000000000007;0.0013298369570179964;0.556192073304516
0.0078000000000000074;0.0013854561643484484;0.5701082603800598
0.007900000000000008;0.0014424669903864548;0.5841074130087912
0.008000000000000007;0.0015008777316873332;0.5981864899539819
0.008100000000000007;0.0015606963806827304;0.6123425203314096
0.008200000000000006;0.0016219306327158707;0.6265726034976661
0.008300000000000005;0.0016845878930656366;0.6408739088338676
0.008400000000000005;0.0017486752839490226;0.6552436754321838
0.008500000000000004;0.0018141996514922402;0.6696792116922583
0.008600000000000003;0.0018811675726614653;0.6841778948342605
0.008700000000000003;0.0019495853621448902;0.6987371703349827
0.008800000000000002;0.0020194590791783877;0.7133545512930899
0.008900000000000002;0.002090794534307696;0.7280276177293244
0.009000000000000001;0.002163597296080627;0.7427540158271846
0.0091;0.0022378726976633448;0.7575314571193137
0.0092;0.002313625843375275;0.7723577176245716
0.0093;0.0023908616151377313;0.7872306369405028
0.009399999999999999;0.00246958467883178;0.8021481172956649
0.009499999999999998;0.002549799490561345;0.8171081225660483
0.009599999999999997;0.0026315103028179488;0.832108677259585
0.009699999999999997;0.002714721170543906;0.8471478654725266
0.009799999999999996;0.0027994359570911575;0.8622238298212611
0.009899999999999996;0.0028856583400732826;0.8773347703529364
0.009999999999999995;0.0029733918171085754;0.8924789434380622
0.010099999999999994;0.0030626397114523803;0.90765466064808
0.010199999999999994;0.003153405177517187;0.9228602876207077
0.010299999999999993;0.0032456912062792556;0.9380942429157018
0.010399999999999993;0.0033395006305708265;0.9533549968635087
0.010499999999999992;0.0034348361302571754;0.9686410704091277
0.010599999999999991;0.0035317002372980875;0.9839510339533574
0.01069999999999999;0.0036300953406934234;0.9992835061934483
0.01079999999999999;0.003730023691312766;1.0146371529650595
0.01089999999999999;0.0038314874066092725;1.0300106860872784
0.010999999999999989;0.003934488475217999;1.0454028622123372
0.011099999999999988;0.00403902876143923;1.0608124816815563
0.011199999999999988;0.0041451100096073865;1.07623838738891
0.011299999999999987;0.004252733848346278;1.091679463653519
0.011399999999999987;0.004361901794711628;1.1071346351022675
0.011499999999999986;0.004472615258221853;1.1226028655636466
0.011599999999999985;0.0045848755447782195;1.1380831569738274
0.011699999999999985;0.004698683860475601;1.1535745482958826
0.011799999999999984;0.004814041315305188;1.1690761144530057
0.011899999999999984;0.004930948926750489;1.1845869652764698
0.011999999999999983;0.005049407623278135;1.20010624446902
0.012099999999999982;0.005169418247725037;1.2156331285843092
0.012199999999999982;0.005290981560583468;1.2311668260229178
0.012299999999999981;0.00541409824318576;1.2467065760454472
0.01239999999999998;0.005538768900790302;1.2622516478031052
0.01249999999999998;0.005664994065570615;1.277801339386148
0.01259999999999998;0.005792774199509232;1.293354976890489
0.012699999999999979;0.005922109697198281;1.308911913502747
0.012799999999999978;0.006053000888548554;1.3244715286039355
0.012899999999999977;0.006185448041408947;1.3400332268919726
0.012999999999999977;0.0063194513640981425;1.3555964375231395
0.013099999999999976;0.006455011007850453;1.3711606132725729
0.013199999999999976;0.006592127069177709;1.3867252297138513
0.013299999999999975;0.0067307995921490945;1.4022897844176907
0.013399999999999974;0.006871028570590863;1.4178537961697373
0.013499999999999974;0.0070128139502078374;1.4334168042074213
0.013599999999999973;0.007156155630628581;1.4489783674757906
0.013699999999999973;0.007301053467376161;1.464538063902241
0.013799999999999972;0.007447507273766388;1.4800954896900174
0.013899999999999971;0.007595516822735391;1.4956502586303473
0.01399999999999997;0.007745081848598428;1.5112020014330443
0.01409999999999997;0.007896202048741731;1.5267503650754022
0.01419999999999997;0.008048877085249267;1.5422950121691852
0.014299999999999969;0.008203106586466185;1.5578356203454975
0.014399999999999968;0.008358890148500733;1.57337188165731
0.014499999999999968;0.008516227336666465;1.5889035019994036
0.014599999999999967;0.0086751176868664;1.6044302005454745
0.014699999999999967;0.008835560706920943;1.619951709202146
0.014799999999999966;0.008997555877841155;1.6354677720796111
0.014899999999999965;0.009161102655049113;1.6509781449786287
0.014999999999999965;0.009326200469546974;1.666482594893589
0.015099999999999964;0.009492848729036333;1.681980899531352
0.015199999999999964;0.009661046818989464;1.697472846845561
0.015299999999999963;0.00983079410367402;1.712958234586136
0.015399999999999962;0.01000208992713263;1.7284368698636279
0.015499999999999962;0.010174933614118989;1.7439085687281362
0.015599999999999961;0.0103493244709918;1.7593731557624712
0.01569999999999996;0.010525261786568044;1.7748304636892511
0.01579999999999996;0.010702744832936978;1.790280332991617
0.01589999999999996;0.010881772866236147;1.805722611547251
0.01599999999999996;0.011062345127390879;1.8211571542753864
0.016099999999999958;0.011244460842818426;1.8365838227964906
0.016199999999999957;0.011428119225098081;1.8520024851043109
0.016299999999999957;0.01161331947360852;1.8674130152499682
0.016399999999999956;0.011800060775133521;1.8828152930377937
0.016499999999999956;0.011988342304437308;1.898209203732593
0.016599999999999955;0.012178163224810575;1.9135946377780413
0.016699999999999954;0.012369522688588387;1.9289714905259012
0.016799999999999954;0.012562419837640981;1.9443396619757642
0.016899999999999953;0.012756853803838557;1.9596990565250245
0.016999999999999953;0.012952823709491055;1.9750495827287873
0.017099999999999952;0.013150328667763932;1.9903911530694285
0.01719999999999995;0.013349367783070864;2.0057236837355177
0.01729999999999995;0.01354994015144441;2.0210470944098278
0.01739999999999995;0.013752044860885403;2.0363613080661493
0.01749999999999995;0.013955680991692022;2.051666250774651
0.01759999999999995;0.014160847616769492;2.066961851515506
0.01769999999999995;0.014367543801921035;2.082248042000533
0.017799999999999948;0.01457576860612108;2.0975247565025916
0.017899999999999947;0.014785521081771336;2.112791931692478
0.017999999999999947;0.014996800274940585;2.128049506483079
0.018099999999999946;0.01520960522558889;2.1432974218805376
0.018199999999999945;0.015423934967776935;2.1585356208422035
0.018299999999999945;0.015639788529861153;2.1737640481411256
0.018399999999999944;0.01585716493467526;2.1889826502368663
0.018499999999999944;0.01607606319969895;2.2041913751524174
0.018599999999999943;0.01629648233721418;2.219390172357
0.018699999999999942;0.016518421354449888;2.234578992654543
0.018799999999999942;0.01674187925371535;2.2497577880776203
0.01889999999999994;0.01696685503252312;2.2649265117866673
0.01899999999999994;0.017193347683701794;2.280085117974269
0.01909999999999994;0.01742135619549923;2.295233561774329
0.01919999999999994;0.017650879551676667;2.3103717991759374
0.01929999999999994;0.01788191673159427;2.325499786941764
0.019399999999999938;0.018114466710288452;2.340617482530789
0.019499999999999938;0.01834852845854153;2.355724844025212
0.019599999999999937;0.018584100942944045;2.370821830061367
0.019699999999999936;0.018821183125950186;2.385908399764491
0.019799999999999936;0.019059773965926636;2.4009845126871787
0.019899999999999935;0.01929987241719535;2.416050128751384
0.019999999999999934;0.019541477430070495;2.4311052081938165
0.020099999999999934;0.019784587950889877;2.4461497115145883
0.020199999999999933;0.02002920292204134;2.4611835994289772
0.020299999999999933;0.020275321281984244;2.4762068328221756
0.020399999999999932;0.02052294196526645;2.4912193727068868
0.02049999999999993;0.020772063902537136;2.5062211801836565
0.02059999999999993;0.021022686020555494;2.5212122164038027
0.02069999999999993;0.021274807242195864;2.5361924425348454
0.02079999999999993;0.021528426486449342;2.55116181972831
0.02089999999999993;0.021783542668422168;2.5661203090897966
0.02099999999999993;0.022040154699331137;2.5810678716512174
0.021099999999999928;0.02229826148649625;2.5960044683450954
0.021199999999999927;0.02255786193333076;2.6109300599808245
0.021299999999999927;0.022818954939328843;2.625844607222799
0.021399999999999926;0.023081539400051115;2.6407480705703237
0.021499999999999925;0.02334561420710814;2.6556404103392137
0.021599999999999925;0.023611178248142062;2.6705215866449983
0.021699999999999924;0.02387823040680656;2.685391559387648
0.021799999999999924;0.024146769562745328;2.700250288237751
0.021899999999999923;0.024416794591569094;2.7150977326240593
0.021999999999999922;0.024688304364831503;2.7299338517223313
0.022099999999999922;0.024961297750003723;2.7447586044454035
0.02219999999999992;0.02523577361044827;2.7595719494344255
0.02229999999999992;0.025511730805391705;2.7743738450511866
0.02239999999999992;0.02578916818989683;2.789164249371489
0.02249999999999992;0.026068084614833977;2.8039431201794867
0.02259999999999992;0.026348478926851913;2.818710414962948
0.022699999999999918;0.026630349968348208;2.833466090909388
0.022799999999999918;0.026913696577439153;2.848210104903009
0.022899999999999917;0.027198517587929454;2.8629424135224046
0.022999999999999916;0.02748481182928168;2.877662973038987
0.023099999999999916;0.027772578126585575;2.8923717394160784
0.023199999999999915;0.028061815300527183;2.9070686683086278
0.023299999999999915;0.02835252216735805;2.9217537150635193
0.023399999999999914;0.028644697538864398;2.936426834720424
0.023499999999999913;0.028938340222336437;2.9510879820131555
0.023599999999999913;0.029233449020537757;2.965737111371506
0.023699999999999912;0.029530022731674915;2.980374176923508
0.02379999999999991;0.02982806014936727;2.994999132498108
0.02389999999999991;0.030127560062617072;3.0096119316282115
0.02399999999999991;0.030428521255779883;3.024212527554072
0.02409999999999991;0.030730942508535287;3.038800873226992
0.02419999999999991;0.031034822595857978;3.0533769213133155
0.02429999999999991;0.03134016028798929;3.067940624198678
0.024399999999999908;0.031646954350409165;3.0824919339925043
0.024499999999999907;0.031955203543808396;3.097030802532707
0.024599999999999907;0.03226490662406167;3.111557181390597
0.024699999999999906;0.03257606234220073;3.126071021875948
0.024799999999999905;0.03288866944438831;3.140572275042229
0.024899999999999905;0.03320272667189253;3.155060891691967
0.024999999999999904;0.033518232761061736;3.169536822382224
0.025099999999999904;0.03383518644329996;3.1840000174301784
0.025199999999999903;0.03415358644504297;3.1984504269187957
0.025299999999999902;0.034473431487734844;3.212888000702565
0.025399999999999902;0.0347947202878051;3.227312688413296
0.0254999999999999;0.03511745155664643;3.241724439465959
0.0255999999999999;0.035441624000593024;3.256123203064562
0.0256999999999999;0.03576723632089947;3.270508928208044
0.0257999999999999;0.03609428721372025;3.284881563696184
0.0258999999999999;0.03642277537008986;3.2992410581355074
0.025999999999999898;0.036752699475903414;3.313587359945188
0.026099999999999898;0.03708405821189793;3.3279204173629284
0.026199999999999897;0.037416850253634226;3.3422401784508216
0.026299999999999896;0.037751074271479314;3.3565465911011763
0.026399999999999896;0.03808672893058943;3.3708396030423082
0.026499999999999895;0.03842381289089366;3.385119161844281
0.026599999999999895;0.03876232480707807;3.3993852149246
0.026699999999999894;0.03910226332857053;3.413637709553848
0.026799999999999893;0.03944362709952592;3.4278765928612613
0.026899999999999893;0.039786414758812054;3.442101811840239
0.026999999999999892;0.04013062493999607;3.456313313353783
0.02709999999999989;0.04047625627133145;3.470511044139869
0.02719999999999989;0.04082330737574544;3.4846949508167318
0.02729999999999989;0.041171776870827105;3.4988649798880793
0.02739999999999989;0.04152166336881592;3.5130210777482223
0.02749999999999989;0.041872965476590744;3.527163190687119
0.02759999999999989;0.04222568179565944;3.541291264895332
0.027699999999999888;0.04257981092214898;3.555405246468903
0.027799999999999887;0.04293535144679587;3.569505081414126
0.027899999999999887;0.04329230195493727;3.5835907156522433
0.027999999999999886;0.04365066102650249;3.5976620950240408
0.028099999999999885;0.044010427236004894;3.611719165294354
0.028199999999999885;0.04437159915253432;3.625761872156478
0.028299999999999884;0.04473417533974996;3.6397901612364865
0.028399999999999884;0.0450981543558736;3.6538039780974585
0.028499999999999883;0.04546353475368334;3.6678032682436013
0.028599999999999882;0.045830315080507694;3.6817879771242934
0.028699999999999882;0.046198493878220115;3.695758050138022
0.02879999999999988;0.04656806968323392;3.709713432636234
0.02889999999999988;0.046939041026497534;3.7236540699270932
0.02899999999999988;0.04731140643349025;3.7375799072791396
0.02909999999999988;0.047685164424218156;3.7514908899248645
0.02919999999999988;0.048060313513210634;3.7653869630641914
0.029299999999999878;0.04843685220951706;3.7792680718678673
0.029399999999999878;0.048814779016703856;3.7931341614807637
0.029499999999999877;0.04919409243285193;3.8069851770250915
0.029599999999999876;0.049574790950554434;3.8208210636035314
0.029699999999999876;0.0499568730569148;3.8346417663022736
0.029799999999999875;0.050340337233545016;3.8484472301939747
0.029899999999999875;0.05072518195656442;3.862237400340637
0.029999999999999874;0.05111140569659848;3.8760122217963966
0.030099999999999873;0.051499006918778095;3.88977163961024
0.030199999999999873;0.05188798408273912;3.903515598828637
0.030299999999999872;0.05227833564262198;3.917244044498097
0.03039999999999987;0.052670060047071775;3.93095692166765
0.03049999999999987;0.05306315573923854;3.9446541753912534
0.03059999999999987;0.05345762115677766;3.958335750730124
0.03069999999999987;0.05385345473185067;3.9720015927550008
0.03079999999999987;0.05425065489112617;3.985651646548336
0.03089999999999987;0.054648765053987886;3.999291138251503
0.030999999999999868;0.05504808785082522;4.012916522773194
0.031099999999999867;0.055448723217955874;4.026526585895492
0.031199999999999867;0.05585070344605913;4.040120887652659
0.03129999999999987;0.056254038247937066;4.053699245262817
0.03139999999999987;0.05665872979824724;4.067261561373538
0.031499999999999875;0.05706477775244221;4.080807767011668
0.03159999999999988;0.05747218092164132;4.094337802634806
0.03169999999999988;0.05788093783155002;4.1078516118391155
0.031799999999999884;0.05829104690897553;4.121349139271198
0.03189999999999989;0.05870250654406879;4.134830329936401
0.03199999999999989;0.05911531511109564;4.1482951289709264
0.03209999999999989;0.05952947097536933;4.161743481567931
0.032199999999999895;0.059944972495565095;4.175175332954704
0.0322999999999999;0.060361818024494;4.188590628386755
0.0323999999999999;0.060780005909362764;4.201989313147428
0.032499999999999904;0.06119953449186218;4.215371332549309
0.03259999999999991;0.061620402108198614;4.228736631936138
0.03269999999999991;0.06204260708910651;4.242085156684844
